,timestamp,x,y,z
0,1456704054358492,0.005697412401802627,0.001702016822462167,0.012833417319842298
1,1456704054374493,0.01806598872157912,0.02096954021614989,0.023272093272197765
2,1456704054397494,0.030708738480877316,0.038214305367802966,0.032210914275562254
3,1456704054420024,0.04347238449941527,0.05181945421829296,0.03861119370537573
4,1456704054434513,0.055544374347734876,0.06086123997716404,0.04216568219691947
5,1456704054457509,0.06563067314587988,0.06512333137368648,0.04323859802275059
6,1456704054479510,0.07247290989867766,0.06496637677032051,0.0425310377050833
7,1456704054519058,0.07539548272804689,0.0611900438984008,0.040693967568220156
8,1456704054521056,0.07452632775440589,0.05495395525435596,0.03814527990060925
9,1456704054532524,0.07059001199325474,0.04772732297355072,0.035162675810712925
10,1456704054554526,0.06449873348029812,0.041174641042220815,0.03207505768194639
11,1456704054578526,0.0570647632259582,0.03689039520115077,0.029320524546488248
12,1456704054592527,0.048976487367455995,0.035996035719185644,0.027326737281381644
13,1456704054636540,0.04091947717653393,0.03875160568291241,0.026362166977054038
14,1456704054644541,0.03361935923136447,0.044385062515604944,0.026490228475838064
15,1456704054656542,0.027706937192287482,0.0512528056303537,0.027602651396009616
16,1456704054674738,0.023506039716434658,0.057293189939481404,0.029432322062876444
17,1456704054697666,0.02092057766074107,0.06062028708917841,0.03152621665927354
18,1456704054712546,0.019517877622357935,0.06005991845994158,0.03327433871909684
19,1456704054735431,0.018774171425800335,0.055448517462520865,0.03408891370483404
20,1456704054758477,0.01835352010211735,0.04760418752108406,0.03368640472940311
21,1456704054772107,0.018270537084566243,0.03802019827770392,0.032280008574146056
22,1456704054795365,0.018844577747991663,0.028436704922568307,0.03051368819604859
23,1456704054818410,0.020458463232187907,0.020442284195808662,0.02916145764502283
24,1456704054831619,0.023237665035627575,0.015182276445528334,0.02878510863063003
25,1456704054854621,0.026822452072924486,0.013195240978721703,0.029536537832063985
26,1456704054877623,0.030384556671320666,0.014382025840446054,0.031158200169639532
27,1456704054891623,0.032924111100657134,0.018097970564460764,0.03312752325485493
28,1456704054915128,0.033705821016900166,0.02333514860047399,0.03487313681200541
29,1456704054937635,0.03257440153589809,0.028945749793899786,0.0360050397022582
30,1456704054953637,0.02995591224348667,0.03385701923127144,0.03648397214738059
31,1456704054974638,0.026579353147098524,0.037238329805594085,0.03663572074573998
32,1456704054997639,0.023143049226431463,0.03860371379670845,0.03696920280596846
33,1456704055013912,0.020137897298525397,0.03785742332388596,0.03788736920088399
34,1456704055034651,0.017871341353288953,0.03528708059360447,0.039481592400289624
35,1456704055064653,0.016589809562313654,0.03148931598524155,0.041555509007688854
36,1456704055073653,0.016574897166267276,0.027228737937976852,0.043842180727696606
37,1456704055094654,0.01814446835601054,0.023278367084773294,0.046213368111953194
38,1456704055118378,0.021546337673340327,0.020300225693816436,0.04869177745247844
39,1456704055134384,0.026780790550591467,0.01878626640234075,0.05126547972012858
40,1456704055155383,0.033441260165529924,0.019048877624428515,0.05368751320496261
41,1456704055178446,0.040692580247007906,0.021246733626884784,0.05544444166705529
42,1456704055194367,0.04748141097242725,0.02542927695027045,0.055918288317448314
43,1456704055215171,0.05297317494269831,0.03157563518128322,0.05463001835511126
44,1456704055238183,0.05702475739604029,0.03959936626863639,0.051448893055477056
45,1456704055254385,0.0603358620535022,0.049281260108599026,0.04671064801507776
46,1456704055274186,0.06400558645207348,0.0600925711295534,0.04121073041374813
47,1456704055298187,0.06863173069008023,0.07094388722413962,0.03605338867082995
48,1456704055314187,0.07352990606037245,0.08005565645576167,0.032401347977928145
49,1456704055334200,0.0766940408760478,0.08523583102613073,0.031221565890664667
50,1456704055358201,0.07566482677674004,0.08465154029560079,0.03307582577658774
51,1456704055374203,0.06885107659499708,0.07775972634840578,0.03793451482572494
52,1456704055394203,0.056540766361848835,0.06581785587944526,0.04503349676121877
53,1456704055418224,0.0410548863693512,0.05161785858781984,0.052916717568270905
54,1456704055434232,0.02602232858989492,0.0385771313450976,0.05983128852029612
55,1456704055454234,0.015185932531282245,0.02964781076438662,0.0644579320498514
56,1456704055478234,0.011253209205506978,0.026496177102984762,0.06665600353072137
57,1456704055500236,0.015138959626215722,0.029209954326056907,0.06771634657367093
58,1456704055514236,0.025729173910240318,0.03657435589438644,0.06977070997377427
59,1456704055537253,0.040177248463914426,0.0467374249871846,0.07450859907752583
60,1456704055559255,0.054698369807345465,0.057898625204922644,0.0819035881716999
61,1456704055574371,0.06573833459994556,0.0686556260326841,0.08981581995822996
62,1456704055597257,0.07120687183453087,0.07791773721909251,0.09488373758003599
63,1456704055619769,0.071293165705149,0.0846558832033785,0.09428891901267816
64,1456704055635284,0.0684481397527986,0.08787736917828257,0.08738239964614196
65,1456704055658290,0.0664899936399829,0.08696216056327169,0.07624740924013976
66,1456704055680287,0.06918930628293433,0.08211362422265647,0.06492426846541204
67,1456704055695288,0.07882888217846201,0.07452760152129298,0.05775422619568986
68,1456704055718808,0.09517929231505756,0.06609267336473612,0.05769648140485499
69,1456704055740370,0.11526352132003977,0.058783451467861896,0.06536096126833756
70,1456704055762316,0.13413471303425845,0.05409123174959606,0.07899306380581364
71,1456704055778371,0.1465224978533908,0.0527443252439983,0.0951567685981225
72,1456704055800370,0.14875748455334115,0.05473778567173289,0.10975418496335733
73,1456704055816381,0.14019157710741487,0.05952738933356372,0.11918335264944141
74,1456704055838485,0.12353410284025781,0.06624605572236138,0.12146728534647637
75,1456704055860492,0.1039752953330714,0.07390866301955268,0.11698894400395762
76,1456704055875336,0.08745163586746142,0.08162875336854117,0.10837769912752644
77,1456704055899337,0.0787242076492162,0.08879273480373284,0.0994016063848197
78,1456704055920352,0.07994715420570127,0.09504888158489354,0.09328846619129368
79,1456704055935366,0.09014711831194681,0.10007993280560197,0.0912976070450549
80,1456704055958362,0.10572259217173692,0.10339316897837578,0.09227470722473534
81,1456704055979364,0.12182128597856799,0.10445144583294723,0.09340615189520338
82,1456704055995393,0.1341986095317899,0.10319495718183201,0.09180514931863352
83,1456704056027222,0.14085470268821826,0.10060038230611372,0.08621987698357399
84,1456704056039707,0.14261176197329134,0.09879272238350209,0.07809997798093743
85,1456704056055505,0.14219370243331753,0.10046917892486125,0.07142094686856527
86,1456704056078507,0.14226894486813585,0.10776115500492352,0.07108754113038941
87,1456704056102509,0.14365274638728762,0.12096093255307214,0.08043529724624598
88,1456704056116035,0.14479577930621734,0.13778631277237843,0.09902227001967337
89,1456704056138617,0.1428500734637204,0.15387325934339655,0.12203565452714546
90,1456704056160618,0.13557701758188095,0.16463162050838961,0.14194043114484314
91,1456704056176619,0.12281274863120369,0.16761866260995711,0.15171825562253574
92,1456704056198620,0.10655879262789966,0.16396023185901462,0.14796786132177317
93,1456704056220220,0.08978511101646391,0.1577556646189472,0.13213548466348968
94,1456704056235437,0.07486775493974916,0.15370179777903586,0.1093621304049635
95,1456704056258437,0.06263207634226448,0.15444092937683554,0.08594952576964598
96,1456704056279438,0.052446225170222835,0.15939286551770585,0.06706744868622866
97,1456704056295473,0.043240802273608256,0.16584618706036555,0.055732813057325456
98,1456704056319244,0.03494480503371168,0.1715593068061866,0.05299130292433642
99,1456704056340474,0.029608073838393836,0.1770958255130467,0.05854463167084868
100,1456704056356255,0.031486264655703,0.1862112659148121,0.07114897960183235
101,1456704056378396,0.045713339588319996,0.2037145285121839,0.08864534296265279
102,1456704056402397,0.07583408305476814,0.2317615641057376,0.10793462273593261
103,1456704056416152,0.12115712568805409,0.26674389235220425,0.12531356540012945
104,1456704056453418,0.1752710215035426,0.2990324121782739,0.13739693401728412
105,1456704056461416,0.2268760032007374,0.3164558733842277,0.14249502821187454
106,1456704056476417,0.2632387562322555,0.3101611268203259,0.14190445797191448
107,1456704056498421,0.27521354299640466,0.2798473094985203,0.14030979936332372
108,1456704056521937,0.26147400805983956,0.23541400082517935,0.14466018022401053
109,1456704056542454,0.229464170522345,0.1938021771571307,0.16156317937835266
110,1456704056559447,0.19223344888096133,0.17224196234807515,0.19413537961020655
111,1456704056581449,0.16278344396877947,0.18094818739448418,0.23979630205336336
112,1456704056595464,0.1489397727534735,0.218593089252313,0.29022377368848584
113,1456704056619012,0.15117049866306334,0.2725838446907991,0.3337108378528261
114,1456704056641483,0.16386801792532701,0.32401856136054025,0.3591276161750103
115,1456704056655484,0.17874885702237825,0.35509838156741547,0.3600422864983194
116,1456704056678485,0.18829896003224111,0.35557854102314546,0.33728410840997547
117,1456704056701486,0.18781993752252804,0.32538080706840766,0.2985761357164646
118,1456704056724007,0.17586769914761885,0.2728042654736298,0.25519239147125644
119,1456704056738508,0.1537156703288491,0.21026573538522847,0.21728834765736868
120,1456704056761509,0.12452905338312797,0.15018441979833116,0.19026966049651917
121,1456704056782550,0.09254907378904575,0.1023670381870665,0.17378259455219322
122,1456704056798511,0.062297453640170405,0.0727290524242602,0.16335426237597778
123,1456704056822031,0.037830275700009686,0.06272740012637354,0.1534244440459435
124,1456704056843007,0.022185817296524635,0.06931991140552493,0.1401219527001092
125,1456704056858945,0.017110752258529992,0.08574441236615231,0.12267021825572189
126,1456704056881734,0.022959907053846214,0.10336767163939034,0.10322528980368152
127,1456704056903011,0.03860794551902797,0.11429725531466975,0.0855930892340061
128,1456704056919486,0.061368405094438014,0.11381495035901207,0.07345458222614135
129,1456704056941758,0.08711657078285084,0.10155910209268476,0.06874068391683842
130,1456704056962761,0.11086924329471462,0.08098207402421331,0.07079397562710801
131,1456704056978779,0.12789387716073794,0.05751460459316216,0.07670231823759477
132,1456704057008762,0.13504765417791867,0.036408589779892295,0.08259357723194206
133,1456704057022771,0.13174706144877021,0.02114509084813234,0.08514100074280416
134,1456704057038778,0.1200450543956687,0.012837754775373713,0.0825370866685182
135,1456704057061780,0.10373742003686597,0.010585066815314568,0.07470748281061872
136,1456704057082781,0.08691996659965273,0.012403989090510511,0.06301042559915065
137,1456704057099019,0.07267665382478969,0.016257372301635292,0.049729791782303426
138,1456704057122237,0.062455097120500264,0.020766972913610723,0.03749055477957815
139,1456704057142329,0.056232251298960964,0.025423640981618735,0.02863975318407522
140,1456704057158192,0.05311744015917832,0.03034327205940737,0.024708085159662007
141,1456704057180193,0.05195079938508689,0.03576797772446289,0.02613188857417062
142,1456704057202199,0.051698920854152286,0.0415719016660131,0.0323411650540052
143,1456704057218709,0.05166390965199996,0.04703395800581751,0.04213403885121894
144,1456704057240227,0.051534073121607245,0.05104217261205096,0.05410243271962619
145,1456704057262387,0.05127437026356908,0.05264224379676849,0.06687029275585454
146,1456704057279228,0.050925662233770125,0.05157059053842301,0.07905768880558867
147,1456704057301350,0.050457249917073024,0.048394473835214266,0.08910365934127475
148,1456704057323185,0.04975454309971181,0.044183825586452105,0.09524294121021318
149,1456704057339384,0.048682004440791175,0.039977102317226315,0.09587733439384513
150,1456704057361149,0.04711889981833681,0.03637947504624291,0.09025443508331966
151,1456704057384351,0.04495708813663036,0.03345941548195484,0.07901585310400963
152,1456704057399353,0.0421363686630035,0.030903827619457657,0.06418592105450356
153,1456704057428859,0.03876540446682129,0.028290367488569702,0.04857047059780349
154,1456704057443362,0.035272776551464,0.02533121180874879,0.0349282372221221
155,1456704057458363,0.03245806949364287,0.021991607726045095,0.025331758419283718
156,1456704057481365,0.03133543957617708,0.01847474829466795,0.020910062928752783
157,1456704057504377,0.03277960933659728,0.015152833295498679,0.021908338516562577
158,1456704057519155,0.03712106790932301,0.012526906394033173,0.027862287660631566
159,1456704057540989,0.04388750933375406,0.011201155409472498,0.03771094330249153
160,1456704057563990,0.05181943477299311,0.011780318762939272,0.04982911493258342
161,1456704057579131,0.05916824814170391,0.014645868931733728,0.06211740728777159
162,1456704057601256,0.06418484349310029,0.019690253159678497,0.07229709460179466
163,1456704057624356,0.06563993935142735,0.02616742199463008,0.07840804362326605
164,1456704057639000,0.06319078490831034,0.03279714349429758,0.0793424948592865
165,1456704057661003,0.0574559511519102,0.03816522182650579,0.07520946864298826
166,1456704057684003,0.04980556097479743,0.04132735540267063,0.06740413587168008
167,1456704057699040,0.04204286092015922,0.04237570543299837,0.058338134092379854
168,1456704057721030,0.036173988175782025,0.04263455404545723,0.050838135116526836
169,1456704057744038,0.03428211847898112,0.04423991104334363,0.04731208317878167
170,1456704057765044,0.038318909658193456,0.04916328382271008,0.04892122293013884
171,1456704057781050,0.049616075558290396,0.058090623596835894,0.055081439000201855
172,1456704057804041,0.06815732647205426,0.06973166511692583,0.06356940175727546
173,1456704057819103,0.09201055081800326,0.08102379176521,0.07131727552002541
174,1456704057841086,0.11751273741347974,0.08833108090662484,0.07568722173461302
175,1456704057864087,0.14051387731002474,0.0892240344787247,0.07574467548317511
176,1456704057885117,0.15823640918367637,0.08403445303097709,0.07296251885397054
177,1456704057901301,0.17061673944763886,0.07639238024442245,0.0709778877176632
178,1456704057924298,0.18005050046399207,0.07233335128525277,0.07442130769903219
179,1456704057944843,0.18945827409493718,0.0781029487431244,0.08723683590244165
180,1456704057961555,0.19989252126363558,0.09737803374962746,0.11112155328063422
181,1456704057984558,0.2094540054023829,0.12910319444774943,0.14467122156675313
182,1456704058004784,0.21445800680989627,0.1671203164003524,0.18353224442693591
183,1456704058021115,0.212077344894943,0.20202892557877908,0.22144475591619303
184,1456704058043805,0.20246555389342002,0.2245977045338997,0.2517757357660453
185,1456704058064807,0.18874542682973264,0.22922875314935298,0.2690806895114241
186,1456704058080808,0.1749646514776448,0.2159118634595071,0.2702767760438426
187,1456704058118023,0.16365956596296777,0.18982555606925697,0.2551734249585616
188,1456704058125292,0.1547529267769808,0.15891983460999184,0.22638989183879
189,1456704058140752,0.14628587571071208,0.13078577588798607,0.1888056638070443
190,1456704058163754,0.13614110544100422,0.11023081440036211,0.14856534020860424
191,1456704058185037,0.12347216999901854,0.09831067378788752,0.11168141933510427
192,1456704058200756,0.10910045512330015,0.09282503308543345,0.08259463343767476
193,1456704058224364,0.09497839965209508,0.08987258602551382,0.06327252868396675
194,1456704058244857,0.08324421853896777,0.08581158720321821,0.053221607575800925
195,1456704058260853,0.07534069265785327,0.07878472055198656,0.050292124006233604
196,1456704058283853,0.0714825510162242,0.06912271706202658,0.051762576561507595
197,1456704058306878,0.07060983307927393,0.05857846498957569,0.0551742254917146
198,1456704058321154,0.07081549753135533,0.04904224206439763,0.058686059185029
199,1456704058343663,0.07007999766134114,0.041574349374346745,0.06105691199220673
200,1456704058366664,0.06703347334329328,0.03618406581671145,0.0615077444333097
201,1456704058388664,0.06144241726379799,0.03221809532585288,0.05964916815740871
202,1456704058403665,0.054231270976496604,0.028933665549973422,0.05550639593407919
203,1456704058426961,0.04706841687620073,0.025900272223028667,0.04957438876356955
204,1456704058440281,0.04172526307922537,0.02309975772888322,0.04281732476205896
205,1456704058464282,0.039458139469214795,0.020775712229945786,0.03654502603022446
206,1456704058486402,0.04059970081631745,0.01916873961744755,0.032146970091152874
207,1456704058500404,0.04445668114790095,0.018296650698763326,0.030737275008887097
208,1456704058524075,0.049536980519335014,0.017903398363814233,0.032809723535439046
209,1456704058546378,0.05405542755511714,0.017596544257390923,0.03799978804762689
210,1456704058560402,0.05655487360467731,0.017070238898679393,0.045038686598098975
211,1456704058583380,0.05637765007746692,0.016262268071053458,0.05197260889898388
212,1456704058606397,0.05376367776250674,0.015354809477367075,0.056668757686416896
213,1456704058620673,0.04956095475059742,0.014643065101637714,0.05751094405123198
214,1456704058643485,0.04476133236693877,0.014378056281488458,0.05403222035744814
215,1456704058666486,0.04014947128297357,0.014688714026310685,0.04715547377638911
216,1456704058680494,0.03623132958285886,0.015613356445035939,0.03885047532455294
217,1456704058703487,0.033381338200055566,0.017180701357776714,0.03134046256533092
218,1456704058727345,0.03197942488117942,0.0194439845218623,0.026262518566631046
219,1456704058740576,0.03234168990278877,0.022416166901779846,0.024186859294133105
220,1456704058763578,0.034472250450977855,0.02594183875773238,0.024656295915398193
221,1456704058786579,0.037876980362153354,0.02960199215780857,0.026613272194498938
222,1456704058807585,0.04166557959323201,0.032741505288557106,0.028913959715727442
223,1456704058824119,0.04493658106372265,0.034645139853371795,0.030667031470160196
224,1456704058846613,0.04721481626771892,0.03479751679062424,0.03133647242794142
225,1456704058867613,0.04867221200857665,0.033091606890743405,0.030742593450978177
226,1456704058883650,0.05000243497427507,0.029862078772040813,0.029116328805645183
227,1456704058906651,0.05203585766950933,0.025736835665274724,0.027215877595280484
228,1456704058928122,0.05534238690767878,0.02143011639747154,0.026356735848150226
229,1456704058943677,0.060031991654349824,0.017611548897137914,0.028172211025821247
230,1456704058966643,0.065751654743126,0.014875396603771194,0.03403970940524298
231,1456704058987889,0.07175755917355962,0.0137304372852857,0.044321908724824735
232,1456704059003840,0.07706155577892572,0.014526383956589563,0.05778325154276837
233,1456704059027388,0.08077381068360037,0.01731338204057877,0.07162357973612839
234,1456704059047982,0.08260182630078744,0.021725459229440882,0.08238628100804324
235,1456704059063983,0.08316088455105346,0.027006994685482497,0.08751237080778085
236,1456704059094246,0.08373701735107851,0.03223012655527679,0.08675451806189922
237,1456704059107983,0.08553439505978366,0.036636673544313735,0.08251800540437894
238,1456704059124309,0.08884020633133596,0.03995867977692363,0.07877079993289092
239,1456704059145960,0.09258952973926517,0.04254240953383339,0.07910974984452938
240,1456704059168082,0.09457851244207466,0.04513910500466427,0.0850861927479618
241,1456704059184192,0.0922991577732242,0.048404587907994415,0.09560432054590927
242,1456704059206194,0.08416264256922072,0.05242915649766197,0.10751442603845374
243,1456704059228448,0.07072190347666538,0.05674023930145749,0.11701442781758427
244,1456704059244035,0.05536315695498825,0.06095015502722269,0.12128934029146882
245,1456704059266038,0.04391393607760773,0.06566708265479443,0.11979390327348184
246,1456704059289304,0.042943378404036954,0.0728886327378861,0.11466890366728462
247,1456704059304306,0.05720334748311547,0.08527849683643395,0.1100602409810989
248,1456704059326060,0.08726372668699307,0.1044732499323768,0.11054087548177939
249,1456704059348370,0.12850458190178757,0.12935953184934515,0.11922226372079663
250,1456704059363371,0.17215429022864362,0.15550357055771266,0.13630332229113395
251,1456704059386424,0.20817354202692037,0.17637750808450464,0.15867647010918787
252,1456704059408370,0.22881907660391418,0.185968527248617,0.18085154985633198
253,1456704059424304,0.23124172193278159,0.18143720335128863,0.19695556522642826
254,1456704059445357,0.21793733560900744,0.16441019261063583,0.2029826513855214
255,1456704059468357,0.19504556563783085,0.14031641861056277,0.19814117498690859
256,1456704059483358,0.1695714845778733,0.1162145870957985,0.184603877991939
257,1456704059505359,0.14695568056092737,0.09815266524957535,0.16603576885188362
258,1456704059530156,0.12995165545886694,0.08913406058194452,0.14596191548045354
259,1456704059543163,0.11885048936177048,0.08839543939574177,0.126800946327316
260,1456704059565165,0.11238016631815974,0.09213717175798684,0.10971027583497305
261,1456704059588335,0.10858172431913338,0.09533999423175664,0.09493785097648749
262,1456704059603365,0.10544008363632677,0.09395336052170933,0.08231929065181488
263,1456704059625693,0.10141304174155708,0.08654890497100538,0.07168789982726999
264,1456704059649737,0.09591037022914654,0.07467412660776053,0.06307800587778309
265,1456704059663702,0.08947045644688462,0.061778031029189356,0.056687282800730286
266,1456704059686006,0.08336996568414665,0.05138773638191652,0.05266748983025442
267,1456704059709704,0.07879771886312524,0.04557124012084346,0.05088709749318839
268,1456704059723995,0.07609665179466878,0.04438218745768317,0.05080516332023051
269,1456704059745504,0.07453712099650672,0.04629340638194377,0.05154510271789493
270,1456704059768505,0.0727254140837113,0.04911900886690456,0.05216295960915263
271,1456704059789797,0.06938674072885341,0.05086730788268668,0.05196780760247837
272,1456704059805507,0.06406356614007153,0.05024152476333344,0.05069464889879377
273,1456704059828801,0.05731514159992382,0.04680526549551015,0.04844689873540911
274,1456704059850099,0.05032347218106089,0.0409435303049964,0.04549948709401996
275,1456704059866100,0.044212122913198856,0.03369469405929766,0.04212352005922086
276,1456704059890101,0.039534548808017246,0.026460981925953274,0.038541493184959745
277,1456704059912101,0.036194131431074986,0.02062880836765088,0.03500326923060489
278,1456704059926114,0.0337352955380101,0.017202663118068034,0.03185914406212594
279,1456704059949124,0.03173841218445755,0.016578721084997933,0.029503861505508565
280,1456704059969126,0.030050112747930038,0.01853164646358738,0.02820097728396821
281,1456704059985126,0.0287370129520155,0.022402244487903147,0.027931377309248245
282,1456704060009138,0.02785385510684821,0.02739132676304682,0.02840034911326422
283,1456704060029648,0.027250635623336007,0.03280774184584143,0.029209794366575146
284,1456704060045158,0.026613267931154202,0.03813017513785215,0.03008376308152764
285,1456704060069258,0.02573110836363345,0.04286507157649604,0.03100819564789796
286,1456704060090260,0.024765291820769506,0.04635685451527825,0.03220616635395767
287,1456704060106291,0.02426640368028435,0.047770345979688746,0.03396424874990167
288,1456704060129118,0.024886984340488444,0.04633641367652558,0.03639420885757664
289,1456704060149575,0.026956121011556068,0.041746761613866146,0.03923873049694692
290,1456704060165574,0.030159035460367047,0.03448363073433782,0.04182947742076733
291,1456704060188575,0.03351306156822793,0.025917958837907408,0.04327053407699275
292,1456704060211576,0.035720003575977335,0.01811437100206175,0.042813754509458284
293,1456704060225906,0.03579633433111094,0.013375270656814603,0.04025785237193848
294,1456704060248379,0.033674874250586385,0.013642447992367999,0.03616482963061595
295,1456704060272382,0.030407005802932516,0.019942561635155866,0.03178941732828266
296,1456704060285380,0.027804675577740964,0.032066357588049654,0.028758753231023268
297,1456704060308381,0.027720046567052577,0.048591773878794695,0.028614191519304638
298,1456704060331687,0.03136884660366183,0.06722302454498277,0.03233291239393565
299,1456704060345980,0.03900789780213178,0.08527602765664204,0.039942606642509905
300,1456704060369211,0.05000162333576708,0.10009663142439211,0.05035585531599846
301,1456704060392252,0.06307337262996483,0.10932749171746693,0.061537279175469535
302,1456704060406249,0.07647911519674082,0.11113145044177881,0.07101687013626438
303,1456704060428755,0.08802718846217626,0.10450893199979862,0.0766097421898027
304,1456704060451941,0.09520070407648829,0.0896864668574943,0.07711231733287785
305,1456704060466205,0.09577697278261463,0.06841341792884198,0.07278082818459124
306,1456704060489206,0.08898355347865669,0.04401520125329415,0.06549287539093442
307,1456704060512207,0.07659455778782273,0.021130684539993734,0.058534916756533634
308,1456704060526303,0.06309954827437513,0.005109293161263483,0.05593373802027532
309,1456704060548927,0.054541104584539396,0.001070494457325423,0.06129027328438671
310,1456704060571895,0.05643570653911977,0.01268669040619656,0.07632651011744376
311,1456704060586159,0.07168005263292562,0.040875582801036876,0.0997409105320876
312,1456704060609162,0.09928234424766462,0.08279390256127458,0.1271340178579067
313,1456704060632222,0.13442467869446198,0.1317291662434494,0.15239360959273124
314,1456704060645846,0.16994377500487115,0.17841836103597247,0.17009013592942462
315,1456704060668870,0.19874297772094376,0.21370966140071238,0.1776887602507257
316,1456704060692115,0.21606626920265476,0.23155582456524687,0.17639895656119137
317,1456704060712849,0.22050976744371095,0.23088900111863261,0.17029493447155905
318,1456704060729145,0.21341524417449279,0.2154917912160688,0.16424434353453982
319,1456704060760031,0.19736482878367798,0.19210419286705582,0.16162151324793902
320,1456704060773032,0.17496281298704414,0.1678517699978104,0.16282768053032867
321,1456704060789253,0.14858353201185676,0.14820078586106797,0.1653608529932975
322,1456704060812253,0.12078763295635073,0.13606817571099988,0.1654057770410873
323,1456704060833015,0.09455823442768928,0.13189429818507656,0.15995166863417368
324,1456704060848969,0.07286102672510786,0.13411130427782317,0.14811926201286718
325,1456704060871970,0.05782852148223665,0.1397096400170618,0.13107111625253998
326,1456704060893272,0.05021571211196961,0.14498138725944285,0.1109760033500022
327,1456704060908972,0.04941237847799143,0.14648743240571876,0.09001105539022793
328,1456704060931999,0.053783360542639054,0.1419814240007135,0.06997684454995233
329,1456704060953008,0.06100575285448149,0.13088327907962663,0.05236142789458246
330,1456704060969007,0.06834487538519525,0.1141332970515108,0.03838693622308562
331,1456704060991017,0.07304451811461248,0.0936549608291405,0.028830807424082935
332,1456704061013009,0.07295304133593246,0.07181132058880432,0.02377883905912936
333,1456704061035021,0.06724411202071834,0.05102417991447012,0.022556168574905354
334,1456704061051042,0.0568477587203224,0.03345266608939046,0.023923691235087665
335,1456704061073050,0.044222206164326164,0.02063292165204295,0.026452474079414035
336,1456704061089043,0.03244993022754019,0.013169858911671013,0.028923477456864296
337,1456704061111044,0.024086562178735497,0.010644523166833572,0.030619190581729936
338,1456704061133198,0.02034412780282272,0.011794015391002464,0.03142439020405643
339,1456704061148266,0.020939580014576246,0.014891354250926738,0.03171519182335827
340,1456704061170267,0.02453074758175958,0.018201132731047984,0.0320844893538472
341,1456704061195268,0.02939813379205591,0.020393060685069568,0.03301939687242471
342,1456704061208270,0.03402596735200712,0.020819629495140997,0.03467817078577249
343,1456704061230652,0.037410974807229054,0.01959640663667855,0.03686097423168761
344,1456704061254160,0.039123067836242746,0.017465085610810636,0.03914402248238925
345,1456704061268161,0.03922866552328967,0.015471621957802145,0.04105139779396735
346,1456704061291313,0.038146842193977806,0.014552641779803975,0.04215454897204713
347,1456704061314164,0.03644021938605595,0.015169132710308219,0.042086449883073765
348,1456704061328958,0.034555506747146865,0.0171215150304272,0.040543765159622214
349,1456704061350697,0.03261218121745128,0.01961965417295442,0.037359537852176015
350,1456704061374697,0.03037468214243005,0.02159322071700982,0.032655969148367214
351,1456704061388725,0.027463017616288016,0.02214326942906183,0.026995676098285973
352,1456704061410700,0.023720874314615326,0.02098730326248224,0.021421270766925387
353,1456704061441808,0.019577200789841254,0.018758578144373324,0.017318723449401278
354,1456704061450781,0.016243011391162052,0.017059211305447373,0.01610946697220538
355,1456704061470782,0.01563670822578414,0.01819150327329932,0.018834837903903064
356,1456704061494783,0.019976982308646207,0.024524238960996612,0.025742404909448117
357,1456704061508784,0.031028637519071388,0.037559803791712004,0.0360165630385568
358,1456704061531077,0.04910620393812761,0.056958483545336565,0.047798669778951856
359,1456704061555372,0.07218053379085045,0.07995334608698648,0.05858242987798801
360,1456704061568374,0.09568090867489396,0.10161677213483282,0.065939833665146
361,1456704061590374,0.11355654417592438,0.11620602185708488,0.06839457802927017
362,1456704061614376,0.12061325747900452,0.11931711503555673,0.06618529511628565
363,1456704061635174,0.1152034780206189,0.11001140790775052,0.061636611782924865
364,1456704061650993,0.10069949939727475,0.09181971252184198,0.05886973840994285
365,1456704061674995,0.08459126699338075,0.07188865596334498,0.0627243591621644
366,1456704061695182,0.07544335661235216,0.05843621510442054,0.0770652116463235
367,1456704061711228,0.07924615827706787,0.05758836865350514,0.10297612994425409
368,1456704061734984,0.09694824269615936,0.07099218101943315,0.13756576736167234
369,1456704061754730,0.12419821206271763,0.09521232673777126,0.17413635894770277
370,1456704061771019,0.1532197172243931,0.12313005252983397,0.20409592130776155
371,1456704061794993,0.17587888550082192,0.14673791857112237,0.22011628136186995
372,1456704061814946,0.18663748081994666,0.16013071055704073,0.2191292067179696
373,1456704061830958,0.18423052073382906,0.16142695910343413,0.2035917454490613
374,1456704061854968,0.17149148862922328,0.15293460162739772,0.1802531643176183
375,1456704061875254,0.15359643405385814,0.1397329176516821,0.15695273558718495
376,1456704061890970,0.1357233185845549,0.12744803362252458,0.13910845677805048
377,1456704061913972,0.1212993533600336,0.1201603342063893,0.12782028687250538
378,1456704061936268,0.11150152860376969,0.11917487934550909,0.12051453513862079
379,1456704061950277,0.10583036075515481,0.12294160817015604,0.11338620670239102
380,1456704061973277,0.10306366654886408,0.12797256954138617,0.10386543465286208
381,1456704061995320,0.10205119198548418,0.13037118837490477,0.09171110139942724
382,1456704062010279,0.10222204740489048,0.12745867830115049,0.07858541360222732
383,1456704062033806,0.10378039297057019,0.11881560858812783,0.066897581968912
384,1456704062055348,0.1074106446922631,0.10613627607663505,0.058728153707833956
385,1456704062070314,0.11341266148589944,0.0919570364484414,0.05515367759191887
386,1456704062093350,0.12069888220577686,0.0781685674070211,0.05594692523592039
387,1456704062116316,0.12646641249238347,0.06537309584005364,0.05963009443612301
388,1456704062130841,0.127041309334971,0.053368445184579665,0.06394493678744331
389,1456704062153369,0.11956732951511491,0.04210164500480881,0.06668445811759137
390,1456704062176334,0.10356946931464667,0.03220420795282868,0.06654821199093888
391,1456704062190335,0.08142820059438678,0.02475571961221638,0.06357026184736965
392,1456704062213338,0.057448080362089496,0.020589489804828873,0.058914958652249674
393,1456704062237096,0.03608030017364252,0.019707214081086732,0.054222205526839165
394,1456704062250351,0.020329754457563798,0.02117676355514227,0.050875625558016536
395,1456704062279353,0.011115645896448725,0.023527320381138517,0.04949729013605777
396,1456704062296354,0.00766105286309155,0.02537619118209498,0.04980018827794426
397,1456704062311354,0.008423174617767436,0.02593187982062439,0.05078267430814909
398,1456704062333900,0.011947413035736598,0.02513297700298742,0.051156715824093243
399,1456704062357119,0.017266580839253146,0.023425433496912614,0.04986172697345919
400,1456704062371085,0.023818040055594524,0.02139029331742742,0.04650755398338406
401,1456704062393883,0.03110099970022779,0.01946960116466835,0.04158593393392473
402,1456704062423157,0.03836092861899671,0.01790044644099319,0.03632340734383203
403,1456704062431162,0.0444939403822114,0.016791502120637743,0.03218770401743044
404,1456704062453175,0.04820384550814441,0.016205930042012737,0.030259611679550377
405,1456704062476175,0.048326678145024435,0.016172799292566886,0.03078082105858611
406,1456704062491177,0.04421038452570979,0.016644301587843028,0.03309049041657322
407,1456704062514178,0.036068784413203075,0.017461179552419912,0.03595054042586161
408,1456704062537158,0.025257274678256836,0.018376924882196628,0.038087334178274194
409,1456704062559164,0.014392117488271098,0.01915586913263611,0.038723539207101615
410,1456704062573083,0.007151938112939947,0.0197222585420432,0.03791132248891104
411,1456704062596088,0.007560300308066649,0.020304110053563394,0.036548789716758706
412,1456704062618161,0.0187028679439807,0.021491721339202925,0.0360448075588362
413,1456704062634069,0.04119174872276388,0.024121291477894456,0.03771628093581918
414,1456704062656794,0.07204529042300412,0.028922852657176104,0.04215177037895981
415,1456704062678072,0.10473412431878582,0.03598463043720968,0.04885039806786027
416,1456704062693951,0.1308062884262992,0.04427918278594731,0.05633560828026767
417,1456704062716798,0.14278276625548847,0.051631101623262794,0.06270744308642622
418,1456704062737842,0.1371822155139914,0.05538461907654023,0.06641141668066605
419,1456704062753313,0.11614909311600104,0.053631092362103464,0.06695261495377425
420,1456704062776315,0.086747488082613,0.046442570704242486,0.06531234370483029
421,1456704062797315,0.05832413966412741,0.03646287898290777,0.06387221073359513
422,1456704062813316,0.03939041576365416,0.028509147853533763,0.065764498529339
423,1456704062836580,0.03541700979396102,0.028280846539118148,0.07380857815364636
424,1456704062858126,0.048067698440079486,0.04057195334224077,0.08945704157079173
425,1456704062874088,0.075587540393524,0.06750560324386676,0.11224486821811745
426,1456704062896088,0.11379228462345789,0.10737704056894241,0.14001270418453207
427,1456704062917089,0.1572677202404088,0.15465462529121682,0.16975215618548992
428,1456704062934134,0.20058013222448312,0.20134537772267727,0.19854114308839338
429,1456704062962381,0.23923222417365617,0.239288855232925,0.22403667703960872
430,1456704062977303,0.26997375227947173,0.2624301770466747,0.24442882306620523
431,1456704062993303,0.29038112302972413,0.26818410949905963,0.25818705487046995
432,1456704063016304,0.29827635490791216,0.2575715234642421,0.26397060123705895
433,1456704063038031,0.29177796648047705,0.2344222072167679,0.2608629801578804
434,1456704063053540,0.2701622092716162,0.204172614892987,0.24882954557037096
435,1456704063076539,0.2348959956460053,0.17258339890762922,0.22903502156728522
436,1456704063099541,0.19003179482621188,0.14447591242321783,0.2036440392865969
437,1456704063113543,0.14165111723544813,0.12271286821034393,0.17516257578896813
438,1456704063136968,0.09656592638906597,0.10783431179522672,0.1458471029060271
439,1456704063159967,0.06069131874665147,0.09854233133896069,0.11759861855705123
440,1456704063174004,0.037584275462762884,0.09274539157621421,0.09218011871723883
441,1456704063196755,0.02769012428115077,0.08858159543652244,0.07127042422250845
442,1456704063219756,0.028620537039284247,0.08493251671654997,0.05613334330176395
443,1456704063234131,0.03628742990070099,0.08132203413008998,0.04713906970501533
444,1456704063256716,0.046313359736776576,0.07749980328420135,0.04352835540571698
445,1456704063279718,0.055140646649042564,0.07312513087272489,0.04361176025723519
446,1456704063293969,0.06057921173702728,0.06775066459487686,0.04530982893487569
447,1456704063316721,0.06185737773526339,0.06102744585306769,0.04678287478590724
448,1456704063339513,0.05937155738643746,0.05293716571785907,0.046911334925363264
449,1456704063353521,0.05429067256497152,0.04389431635803107,0.045497463619901105
450,1456704063382527,0.048092611678445016,0.0346653947800315,0.04317232562076968
451,1456704063399523,0.04209398042171271,0.026167322193123167,0.04105837201919352
452,1456704063413524,0.03708143425408561,0.01926722866677468,0.04028471717650531
453,1456704063437010,0.03318221680481821,0.014662838725447096,0.0415157049671649
454,1456704063459978,0.030036817073715506,0.012819027749370264,0.044679930705488494
455,1456704063473980,0.027168935617913077,0.013877393150542641,0.04900576890714592
456,1456704063496981,0.024322244322026215,0.017502335145953053,0.05333095584156149
457,1456704063519982,0.021573944061784568,0.022738665227134677,0.05655565553578705
458,1456704063535008,0.01920830587093655,0.028035918970199032,0.058053341353135605
459,1456704063556518,0.017491043402652232,0.031568150622173476,0.057837687914618595
460,1456704063579520,0.01652540886338516,0.03183820093672346,0.05639397829471112
461,1456704063600521,0.016301576519363432,0.028373535463111423,0.05431794112424161
462,1456704063616522,0.016927956734565586,0.022214192392993624,0.052054416111215945
463,1456704063639822,0.01890392922525771,0.01594278822591372,0.04992474486581001
464,1456704063661832,0.023214221906679055,0.013173088201570394,0.048363765357699595
465,1456704063676833,0.031073377638646597,0.017577046997829207,0.048076761388679376
466,1456704063700239,0.04334474543817557,0.03163894222029183,0.04984071830342977
467,1456704063721138,0.05988141006457691,0.05543567977476914,0.05394923238801286
468,1456704063736862,0.07911808651984951,0.0858709173693427,0.05967235955078027
469,1456704063760100,0.09816082699161623,0.11683312978211582,0.06524389264137355
470,1456704063781003,0.11347620226459387,0.14057997117494087,0.06859676257595866
471,1456704063796872,0.12208009389919865,0.15021853590705123,0.06852277270252909
472,1456704063818873,0.12281488345853289,0.14253793301768244,0.06557442901747887
473,1456704063847985,0.11706625560148852,0.1199914676708637,0.06216830214883633
474,1456704063857263,0.10843940103538878,0.0907463948461637,0.06188990772411865
475,1456704063878986,0.10146141272931872,0.06647627653307406,0.06846472460278959
476,1456704063901229,0.09987809406273852,0.05853187230152515,0.08484373655637407
477,1456704063916988,0.10528564197982172,0.07380521076410947,0.1124916745988347
478,1456704063938785,0.11670964780534003,0.11180953647953618,0.1507815024971351
479,1456704063960576,0.13137401396800635,0.16422933578555698,0.19658559770746867
480,1456704063976579,0.14634303166368134,0.21741330772323392,0.24436749854108586
481,1456704063998580,0.1601697227808062,0.25704446654226193,0.28702665394489335
482,1456704064021591,0.17347638709522212,0.2730516332965329,0.31747386319251325
483,1456704064036880,0.18787026937346568,0.2626320035490368,0.3304784741298702
484,1456704064058390,0.20373248861634127,0.23034803710736707,0.32398484036163455
485,1456704064081392,0.218463091919654,0.1857733776897711,0.29937045626739234
486,1456704064096393,0.2267251751100729,0.1400071505311548,0.2608558845046616
487,1456704064118394,0.22289523388432944,0.10236079916652732,0.21457054626165295
488,1456704064141256,0.20425968379235834,0.07809989515668884,0.1674440406118721
489,1456704064156246,0.17288883342153888,0.06767934791287591,0.1258923524386832
490,1456704064179248,0.13506367386930457,0.06752398705782472,0.09452260857761034
491,1456704064201249,0.09874804940213748,0.07197768174049146,0.07531129285805319
492,1456704064216250,0.07062595574966792,0.07561369635337666,0.06755027800685821
493,1456704064239184,0.05413648449224839,0.074968779077684,0.06846778569963892
494,1456704064261840,0.049075794439483914,0.06913453544327043,0.07418129445894472
495,1456704064276841,0.05243283014480122,0.059283394961522726,0.08068208040306345
496,1456704064298843,0.05976112174424129,0.04765493381937496,0.08470699562599042
497,1456704064321843,0.06656477721491344,0.03654273446088797,0.08437830444808422
498,1456704064336659,0.06944820582921549,0.027578064385448214,0.0794327555592197
499,1456704064366677,0.06684228511830399,0.021401323269015938,0.07094717561015922
500,1456704064381679,0.059115120183705606,0.017723987699546296,0.06070954241593217
501,1456704064396679,0.048056074601774544,0.015707078472844024,0.050537344153321194
502,1456704064418680,0.03602279319251225,0.014468258535019814,0.04178683313226106
503,1456704064441863,0.025167543327561884,0.013471534123025024,0.035155967044748215
504,1456704064462829,0.01699971004982051,0.012642492553297005,0.0307667109796125
505,1456704064479088,0.01228574502186301,0.012226429876447054,0.028405728318737056
506,1456704064503102,0.011152557615472132,0.012521631203195901,0.027743686426450503
507,1456704064523103,0.013265345235333452,0.01362854419544439,0.028412029936811675
508,1456704064538574,0.017996980516895633,0.015316579985868104,0.02995243549535956
509,1456704064561204,0.02454025159324996,0.0170590736638783,0.03176584687938962
510,1456704064583206,0.03194920648194715,0.018215094513765417,0.033205546148847284
511,1456704064606085,0.039139922013192545,0.018271881996206253,0.03385243977482958
512,1456704064621161,0.044923700651121494,0.01705835113037956,0.03382635451627118
513,1456704064643204,0.048171260969746235,0.014890959120600967,0.03387810425979039
514,1456704064658204,0.0481723678708347,0.012643098664694952,0.035111035210074595
515,1456704064681179,0.04511728318838587,0.011694295832927365,0.0384389054700074
516,1456704064703194,0.04044079081135176,0.013670682053810551,0.04407953899259307
517,1456704064718201,0.03670386948254513,0.019930192339884162,0.051367883715386836
518,1456704064734211,0.03685531200305153,0.0308922181327918,0.05899672571696141
519,1456704064754981,0.0430456867442887,0.0454695023730553,0.06558341438420107
520,1456704064777983,0.05547902907128858,0.06093056715395227,0.07030426115609781
521,1456704064793130,0.07191382784995633,0.073467577247299,0.07329448294768362
522,1456704064815130,0.08825384882731842,0.07953327600336278,0.07562123373436547
523,1456704064838202,0.10019755961207158,0.07760931103071853,0.07885642022769802
524,1456704064852513,0.10529680733639557,0.06961560786483567,0.08446272934935124
525,1456704064874219,0.10434671530753374,0.061022418000318844,0.09324969819633108
526,1456704064897511,0.1011894470081825,0.05916614860823765,0.1050705288999686
527,1456704064920549,0.10084324151187436,0.07018354566421568,0.11879574799697501
528,1456704064935008,0.10687715178610824,0.09587090933291702,0.13251096510115512
529,1456704064957798,0.1194583722198388,0.13208347242447116,0.14390095178102322
530,1456704064972528,0.1351637675491432,0.16971906886541388,0.15082458439874638
531,1456704064994524,0.1486266722036145,0.19804458704843192,0.152014175403605
532,1456704065017748,0.15499931522017163,0.2088167024039917,0.14764862776889812
533,1456704065031963,0.15184865558674518,0.1992360572830393,0.13942262707906766
534,1456704065056043,0.13970930020707806,0.17255625144648837,0.12987064686962663
535,1456704065078187,0.12144275313357701,0.13643555963104934,0.12115139365142893
536,1456704065093189,0.10103990435796487,0.09998767606317804,0.11397037270697372
537,1456704065115144,0.08244917971645542,0.07073963292485398,0.10737424337843289
538,1456704065137873,0.06873021356837947,0.05253769749071627,0.09963387091377127
539,1456704065152352,0.06157875489006778,0.04500355727727968,0.08967209305316934
540,1456704065175353,0.06116364109731745,0.04454173481977792,0.07808256194055659
541,1456704065198742,0.06624400683507593,0.04631296189671818,0.06707839556661632
542,1456704065212494,0.07455070973152107,0.046261042260240574,0.05943938973382066
543,1456704065235160,0.08333975354827708,0.04239292804975655,0.05710385202582439
544,1456704065258034,0.08995899263572003,0.0349821440225092,0.06015704673038823
545,1456704065272706,0.09232629528313135,0.02588086470018021,0.06668178936364225
546,1456704065294701,0.08932257921202764,0.017418629410302595,0.07347863369872282
547,1456704065317963,0.0810924987660701,0.011387798540745613,0.07726617161313992
548,1456704065332919,0.06912007162585855,0.008461316839649659,0.07583224597017518
549,1456704065354909,0.05589630640742907,0.00815868251136526,0.06873383343680589
550,1456704065377908,0.04416228846326064,0.009252461008554676,0.057357762597287434
551,1456704065392915,0.03599071174470029,0.01037038966850464,0.04435178934537259
552,1456704065414877,0.03211555381952399,0.010539726675456598,0.03265832641171674
553,1456704065438152,0.03182082152631147,0.009506549114732879,0.024563785462379136
554,1456704065452393,0.03343406781187366,0.007771753429603109,0.02112794057618436
555,1456704065476387,0.03516642275614707,0.006371768899534744,0.02209360966528892
556,1456704065497389,0.03584834432675524,0.006484565022283694,0.026145792563844816
557,1456704065521389,0.03518886743910604,0.008967665568826045,0.03135284928453111
558,1456704065534984,0.03352020593497951,0.013951712007676925,0.03569731964302495
559,1456704065557996,0.031317592820304,0.020632729406908773,0.03763145025124292
560,1456704065580997,0.028854563147700945,0.02741062836422423,0.03654281663087821
561,1456704065595203,0.02618253064505985,0.03245507729261639,0.032989973988051674
562,1456704065618172,0.023411790933396574,0.03459401304984847,0.028634891959554272
563,1456704065640828,0.0211415099620042,0.03416523713760022,0.025890444346147165
564,1456704065655169,0.020809232519841934,0.03333430611058079,0.027322358955806595
565,1456704065678139,0.024680157981719585,0.03554554996204568,0.03484044676963323
566,1456704065700799,0.035252971222487516,0.0441992672293517,0.048821143280760454
567,1456704065715071,0.05410628477524975,0.06106636567715724,0.06751675879174597
568,1456704065737800,0.08058898787216105,0.08511078585490424,0.08719212155622737
569,1456704065761126,0.11106438416098327,0.11225624211094888,0.10316714445857658
570,1456704065775124,0.13940405034275993,0.1363186470414834,0.11142695479427607
571,1456704065797055,0.15891439964378354,0.15092567063829232,0.1100750531473502
572,1456704065820063,0.16498376817688587,0.15183647825015775,0.09999131677975479
573,1456704065834886,0.15709044356196816,0.1388116905206664,0.08455887702557574
574,1456704065858121,0.1391084715669593,0.1162624327755797,0.06879150283915116
575,1456704065881115,0.11790901536777948,0.09234407342189059,0.058272194215275144
576,1456704065895120,0.10109039739243107,0.07669161391867259,0.05812376255234337
577,1456704065918159,0.09471693209388361,0.07736372853186814,0.07206837931830268
578,1456704065941128,0.10160122457819064,0.09781540431266761,0.10157844115927574
579,1456704065954142,0.12048471189512479,0.1349611955138611,0.14516597078082172
580,1456704065977143,0.14645778171336302,0.17939033035367224,0.19801169071148092
581,1456704066001158,0.17271132939485065,0.21815848126777776,0.2522786241404794
582,1456704066015139,0.19303887719612195,0.2393333247621721,0.2984108508722112
583,1456704066037931,0.20389273996943075,0.23633795990881346,0.3273868190717652
584,1456704066061226,0.20498368561242494,0.21009870756283816,0.3332797551154723
585,1456704066075227,0.19837295653961098,0.16824293257178802,0.3149846129640417
586,1456704066098229,0.18685141299040803,0.12209490279797364,0.27628218068935206
587,1456704066120562,0.17254044275796782,0.08290505344280198,0.22440553213483377
588,1456704066135067,0.1562991366273819,0.05857521243881429,0.16796062804599224
589,1456704066158152,0.1380475947645451,0.051695821372689084,0.11497727241423969
590,1456704066180081,0.11766189640941234,0.05932523035322885,0.07149746593278192
591,1456704066195152,0.09582064760101132,0.07454025927256071,0.04085009747239432
592,1456704066218153,0.07426615263523048,0.08924336127806876,0.023594202461958928
593,1456704066240634,0.05534561963859962,0.09716360660572738,0.017993898111641753
594,1456704066254383,0.04113994004850682,0.09581943030475162,0.020840317072507695
595,1456704066277390,0.03268859503872494,0.08668496072493861,0.028413381870871557
596,1456704066308652,0.029699063080703872,0.07371930496478246,0.03733743658382547
597,1456704066314385,0.03080915306784283,0.06119039154480921,0.045102386418830055
598,1456704066337604,0.034167114031587564,0.051881979198643645,0.050182802092589573
599,1456704066361110,0.037990538421764225,0.04635986348032853,0.05191107304684564
600,1456704066375112,0.040889501017696145,0.043367925008080746,0.05033344517509324
601,1456704066398123,0.04194974859841397,0.040931070248476274,0.046127371957268626
602,1456704066421147,0.04070106298267084,0.03751242129582641,0.04048150164905322
603,1456704066437163,0.037101950737102395,0.032679627000805185,0.03484280469779736
604,1456704066458176,0.0316029127162456,0.027095881122364045,0.030570796506979036
605,1456704066480922,0.025236354893632344,0.022011388036876203,0.02862057454934946
606,1456704066495169,0.019566446791277618,0.018593343171579204,0.02933942198539925
607,1456704066518173,0.016339155773299037,0.01740457021790176,0.03238720809830183
608,1456704066540934,0.016863935755613305,0.018212282802628415,0.03677053221643531
609,1456704066555143,0.021391060044309008,0.02013453807084827,0.04102206440955673
610,1456704066578172,0.02882021099873291,0.021984302449910675,0.04357275939479046
611,1456704066601136,0.036953272169901186,0.022644792525647977,0.043274691754515066
612,1456704066614945,0.04328296401522195,0.02140751304815263,0.03988920543947795
613,1456704066638038,0.046058136403396954,0.018293377218280945,0.03430553462058885
614,1456704066660545,0.045157060137162155,0.014330344728288175,0.02836549753108174
615,1456704066675258,0.04229048683848664,0.011622062684533547,0.024351152781695896
616,1456704066697260,0.04035565424111141,0.012993082284838316,0.024309325248048744
617,1456704066721260,0.04221340834417602,0.021146541770853244,0.029403842645280488
618,1456704066742865,0.049432439815447614,0.037531253715927686,0.03946341052847968
619,1456704066757071,0.061489295039744825,0.061313065274716354,0.05287050748795877
620,1456704066780067,0.07569919092789616,0.08889511011956563,0.06688349630430275
621,1456704066803133,0.0879783146315303,0.11434742878633551,0.07835978564797659
622,1456704066818094,0.09433317053643213,0.13088953813982065,0.08468780987580257
623,1456704066839865,0.09258869882413237,0.13317728589171818,0.08463869702076483
624,1456704066863378,0.08352746160205544,0.11963947000457897,0.07887107858285136
625,1456704066877639,0.07079198580421193,0.0937981213099583,0.0699534118991605
626,1456704066899615,0.059607009558290534,0.0637552048832421,0.06195629137356236
627,1456704066922599,0.05498929388873394,0.039827973475201256,0.05977262063650471
628,1456704066938105,0.060180679044903616,0.03117226007851599,0.06822737497586497
629,1456704066959962,0.07576856387162935,0.04263241445284094,0.09091496005823278
630,1456704066983999,0.0997071409439815,0.07292534236306762,0.12887036162828988
631,1456704066997633,0.12823657879131245,0.11484575134069,0.17956350411344715
632,1456704067019967,0.15737197313898404,0.15758295704536976,0.2368161040005877
633,1456704067042977,0.18427198771121667,0.19042420014114886,0.2918683963976665
634,1456704067057521,0.20772774803199132,0.20634331656845076,0.33531595006957027
635,1456704067079485,0.22750578844217298,0.2038998878996519,0.35932301012198203
636,1456704067102648,0.24309161754032135,0.18680724732798187,0.3594347868277548
637,1456704067117749,0.2528187938957643,0.16179514071763426,0.33550919858221206
638,1456704067139743,0.2540756521448005,0.13601576938145385,0.2916906451883565
639,1456704067162715,0.24458015692072851,0.11498861312437586,0.2355603864748883
640,1456704067178018,0.22403616726825584,0.10147393020071273,0.1765342509962709
641,1456704067199980,0.19511274077108628,0.0952680973294038,0.1236804754838624
642,1456704067222753,0.16293614562606984,0.09382515961142353,0.08354809158957413
643,1456704067237752,0.13318937034549014,0.0935360145693008,0.05885829323428883
644,1456704067259740,0.10988010172004431,0.09124690246878331,0.048603854165631705
645,1456704067282777,0.0940791577764448,0.08537887901919385,0.04937245286005929
646,1456704067297742,0.08422988783125777,0.07615665631427239,0.057084733607760396
647,1456704067319744,0.07756688819085526,0.06498301380371602,0.068259125515535
648,1456704067343029,0.07162161639905332,0.05350045510856831,0.08039253568333823
649,1456704067358055,0.065061010958119,0.04294049613607509,0.09167877430903933
650,1456704067379804,0.05776607017143125,0.03398712544845124,0.10061610054076654
651,1456704067403024,0.05049340237730267,0.026971595830144274,0.10591032666155957
652,1456704067419052,0.044453683004118984,0.02208756070423998,0.1066790044876876
653,1456704067439814,0.04088939811009473,0.01945133486688631,0.10269782774576806
654,1456704067463021,0.04059359664759779,0.019023295532871857,0.09447900330740965
655,1456704067478068,0.043442421684882784,0.02049635355969118,0.08315954198560876
656,1456704067500111,0.04820828687770001,0.023243009953104285,0.0702770735163396
657,1456704067523108,0.05287866339494381,0.026371258372750048,0.05750879370566819
658,1456704067537817,0.05542199437662756,0.028904468237523365,0.04643405786533866
659,1456704067559328,0.05465582561722056,0.03005013427689295,0.038357751622657886
660,1456704067582334,0.0507835405190024,0.029460944172443347,0.03417750771899154
661,1456704067597369,0.04532795097606119,0.02736882951184254,0.034240878810667376
662,1456704067619527,0.040506745258062714,0.02452720200681402,0.03817793960179655
663,1456704067642751,0.03835992170970979,0.021994684774655923,0.04479519255229438
664,1456704067657047,0.04000189674472766,0.02084566122380714,0.052190335329055544
665,1456704067679141,0.045258622600911604,0.021870267490536763,0.05819343948286191
666,1456704067703047,0.05277648066396078,0.02530922213720541,0.061042105810520504
667,1456704067718062,0.060529106582756356,0.03070734780690201,0.05999635936993608
668,1456704067740277,0.06652814261769666,0.03698726650472378,0.055583547314170194
669,1456704067762465,0.06948469972269251,0.042764387265162664,0.04935486951225197
670,1456704067777548,0.06919418592465286,0.04679275411490746,0.04326889678219204
671,1456704067799506,0.0665236543725151,0.04834964395376081,0.03896035388699112
672,1456704067830525,0.06301702104225211,0.047391333725540725,0.037195394234215653
673,1456704067837516,0.060250277621969585,0.044441526021539196,0.037750377770344554
674,1456704067859595,0.05915489689980183,0.04032518415344828,0.03974222395691731
675,1456704067882447,0.0595721484998758,0.03590286388444684,0.04216309404114292
676,1456704067897316,0.06026465740613586,0.03187760527049591,0.0442615899339222
677,1456704067919600,0.059454325110553416,0.028674368269364814,0.04560586855058566
678,1456704067942825,0.0556912332099068,0.0264065171676968,0.04596937039902259
679,1456704067957669,0.04862304894395734,0.0249502590821732,0.045265184881703675
680,1456704067979339,0.03924777772477219,0.02407405552794758,0.04358200262505945
681,1456704068002346,0.02954288060040147,0.023513724036557448,0.041212823589267866
682,1456704068025340,0.02171811553749797,0.022954972277888522,0.03858503049616543
683,1456704068039858,0.017465632802650496,0.022016917013171756,0.036106332105884605
684,1456704068062438,0.017476936862383764,0.020360272665498745,0.034012226322313974
685,1456704068085642,0.021328490411066436,0.017921019517595543,0.03231325248200706
686,1456704068099588,0.02771078251846423,0.015111173935699647,0.030898065437568165
687,1456704068122667,0.0348942560119754,0.012792473956165137,0.029754664591141004
688,1456704068145626,0.04126943850356847,0.011962955996887344,0.029169909730384892
689,1456704068159884,0.04577386210819074,0.013294127688872965,0.02973455428495009
690,1456704068182876,0.0480587690431131,0.016765298124356637,0.03207644762316448
691,1456704068205907,0.048371496909626624,0.021595459959333513,0.03643430925106799
692,1456704068219944,0.04728098543338224,0.026518378391027955,0.04232223112828951
693,1456704068242517,0.045445303471090714,0.030276470166994453,0.04849536133276706
694,1456704068265529,0.04354286575663479,0.032103187431401566,0.05325831134722287
695,1456704068279528,0.042309774719670165,0.031969358853292246,0.05501300674334325
696,1456704068302811,0.04249878271190684,0.030489176726983515,0.05288292495694939
697,1456704068325688,0.044645337065143516,0.02855894568954874,0.04721598600282903
698,1456704068339993,0.048746260017289135,0.026938940965310448,0.03973324521767142
699,1456704068362441,0.054097707177715885,0.02600392828169418,0.033141072552619964
700,1456704068385734,0.05945835946849256,0.025764938742604084,0.030227854797611257
701,1456704068399726,0.0634906395872366,0.026080558508391367,0.032738494417125286
702,1456704068422446,0.06526025701086202,0.026867972284793314,0.040499142555318404
703,1456704068445600,0.06454380237757255,0.028169714690950944,0.051245485991288774
704,1456704068461301,0.06180471961213783,0.030064623517742035,0.061358632334050735
705,1456704068483265,0.05786749657569652,0.03251253692648012,0.0672811961339846
706,1456704068505600,0.053467302102167824,0.035250343835995276,0.06697463293734517
707,1456704068519559,0.04894522586279302,0.037819321484466845,0.06069283698852251
708,1456704068543084,0.04432349971424865,0.03970498077152243,0.05071631816146289
709,1456704068565674,0.039736885878673495,0.040476350194839764,0.04027200086655875
710,1456704068579638,0.03584753797151924,0.03983364662801461,0.032243249926250765
711,1456704068603004,0.033794510411033395,0.03760115025719428,0.02825378920326674
712,1456704068625714,0.03458344579766573,0.033771382375347186,0.028410010395464636
713,1456704068639702,0.03829897720230104,0.028618464151071936,0.03165018485884454
714,1456704068662180,0.04370019266825262,0.022769319908981782,0.036423551068069215
715,1456704068685440,0.04853181765643035,0.017127248394968052,0.041339500870096135
716,1456704068700178,0.050441498003674166,0.012677547278156242,0.04549844507393128
717,1456704068723178,0.04801760965233586,0.01029483404798122,0.04843368693220136
718,1456704068744480,0.04139930533169474,0.01061219743563727,0.04984842799478556
719,1456704068759795,0.0322074901196377,0.013899275122825544,0.04944879115622224
720,1456704068782655,0.02294674620869499,0.01988823428447516,0.047062322154742896
721,1456704068804795,0.016216375277358093,0.02760568723093437,0.04296528595252194
722,1456704068819796,0.013997942303947453,0.03538649556125629,0.038118586128335866
723,1456704068842799,0.017148598425345305,0.04122468621265125,0.03402343712019589
724,1456704068864797,0.025162114993198134,0.043428774957407774,0.032165209634520055
725,1456704068879798,0.03623596030127359,0.04130399823276256,0.033310414678585136
726,1456704068903092,0.047635632816237415,0.035480198873202036,0.037030737686070465
727,1456704068925064,0.05628049257174663,0.02766943200011167,0.04170666999157533
728,1456704068939822,0.0594341530268162,0.019972329426916017,0.04503325283394881
729,1456704068962839,0.05536884615384253,0.014096347328396933,0.04484285278401742
730,1456704068984840,0.04385097919280251,0.010836997932612967,0.03993693458594921
731,1456704069000010,0.026286501499326532,0.009968979607727156,0.030603162606083104
732,1456704069023018,0.005441163550464578,0.010478483333775497,0.018597054689069536
