,timestamp,roll,pitch,yaw
0,1456704054358492,0.0065078905599420655,0.006824406321623722,0.004524410613405074
1,1456704054374493,0.015088036681838406,0.012684263882958262,0.019819182246606004
2,1456704054397494,0.02428536600406118,0.017409856918166593,0.03263483776959126
3,1456704054420024,0.03445227536192344,0.02014951353212393,0.041159810920562236
4,1456704054434513,0.045405576556002296,0.02059025717413847,0.0446596569079381
5,1456704054457509,0.05623230765653776,0.019016524352777314,0.043727487073219766
6,1456704054479510,0.06533777368581042,0.01617030766171413,0.04009722961760358
7,1456704054519058,0.07084153649998139,0.012972532140276613,0.036010693463011
8,1456704054521056,0.07123424218444514,0.01023263646470117,0.033391236411271806
9,1456704054532524,0.06601948604505178,0.008460979915007515,0.033180806018277276
10,1456704054554526,0.0560328307122472,0.007823584883431437,0.03509023159425862
11,1456704054578526,0.04327458429298238,0.008206883043802933,0.03782526689347872
12,1456704054592527,0.030312886943034578,0.009329037729550252,0.03969679701995311
13,1456704054636540,0.019497955035427426,0.010839725066022664,0.039406666170286125
14,1456704054644541,0.012301790603896268,0.012380687945702228,0.036703870097428044
15,1456704054656542,0.00902614569820036,0.013620174775206717,0.03258906951449538
16,1456704054674738,0.00894066562832652,0.014295689439418518,0.028902894168575218
17,1456704054697666,0.010725122106917544,0.014279400359235792,0.02744751247751897
18,1456704054712546,0.012996349800714761,0.013636350905643885,0.029074201144780296
19,1456704054735431,0.01473018683237351,0.012623392562509191,0.03321347809713402
20,1456704054758477,0.015482229880168464,0.011605123623419712,0.03808815733720415
21,1456704054772107,0.01538827902145322,0.010920197353358392,0.04148308515450683
22,1456704054795365,0.01496863167441521,0.010765720546903217,0.04166907068298032
23,1456704054818410,0.01480890063688901,0.011152289535844937,0.038045835459677504
24,1456704054831619,0.015248724641025257,0.011936964631851244,0.031269122231240794
25,1456704054854621,0.016220190701107848,0.012901931371433297,0.022902164782316225
26,1456704054877623,0.01730206364850015,0.013832434430844925,0.014814798678351726
27,1456704054891623,0.017940633899914828,0.014559600026593891,0.008588693316923404
28,1456704054915128,0.017713355639337396,0.014962439393261974,0.005118205386966624
29,1456704054937635,0.01650858844004239,0.014951917641286536,0.004489344088845392
30,1456704054953637,0.01454361127429413,0.014470171489302587,0.006117724575898002
31,1456704054974638,0.012221569370239257,0.013522792428052353,0.009050833972879646
32,1456704054997639,0.009914520040870829,0.012232415454511597,0.012304446421493706
33,1456704055013912,0.007807957838393161,0.010877111308672072,0.01511927066625956
34,1456704055034651,0.005911583732346036,0.009872187168893726,0.01708463402930091
35,1456704055064653,0.004246233236535131,0.009674060062468586,0.01814517735597534
36,1456704055073653,0.0031132356242306917,0.010624358809450994,0.01854331298832606
37,1456704055094654,0.003287134759635966,0.012794625759958838,0.01874268771080423
38,1456704055118378,0.005968872142914464,0.015912244167509155,0.019347189130411654
39,1456704055134384,0.012408814794985555,0.019425912600639774,0.021005337336924626
40,1456704055155383,0.023261989639108333,0.022705303881291414,0.024283873530847426
41,1456704055178446,0.037930764566114335,0.025294353004390584,0.02950235874450773
42,1456704055194367,0.05427626990188829,0.027093207541400637,0.03654303536289983
43,1456704055215171,0.0690144587958356,0.028359833710891447,0.044702750106643825
44,1456704055238183,0.07880710027605255,0.029503634856152094,0.05272705197326257
45,1456704055254385,0.08162392209706623,0.0307651606055681,0.05917333811700083
46,1456704055274186,0.07767358927027193,0.03197346560932736,0.06308100107985999
47,1456704055298187,0.06935537952944365,0.03256249770897416,0.06462678522479076
48,1456704055314187,0.06023079009941344,0.03188165724415389,0.06527198604257106
49,1456704055334200,0.053560821509110734,0.029636530920564244,0.0671128361657345
50,1456704055358201,0.051134341345801616,0.02619057559333317,0.07166811619259389
51,1456704055374203,0.05289178530870028,0.02253443657348753,0.078793330490867
52,1456704055394203,0.0574131910249898,0.01993406868695389,0.08641076226169286
53,1456704055418224,0.06290460268916352,0.019452529259949836,0.09127315424755358
54,1456704055434232,0.0680922706069168,0.021585088554044972,0.09039833516798162
55,1456704055454234,0.0725552983167774,0.026150183440401074,0.08249491901886084
56,1456704055478234,0.07641667352708797,0.03242324710155481,0.06875076377464018
57,1456704055500236,0.07970773247344776,0.03938380588039429,0.05267292277939971
58,1456704055514236,0.08188251877657826,0.04593073046026789,0.03908301875640154
59,1456704055537253,0.08182301717838605,0.05100361875686294,0.03270523408756502
60,1456704055559255,0.07835085285954982,0.05366087298943664,0.03688613936839277
61,1456704055574371,0.07094469321099821,0.05321578714276953,0.052824565183722985
62,1456704055597257,0.06025123835419648,0.04946940403506413,0.07939527717303832
63,1456704055619769,0.04813032127675964,0.042939201609522665,0.11342460718264256
64,1456704055635284,0.03724466770750828,0.034890282436605816,0.15023002936522756
65,1456704055658290,0.03038022273348058,0.027047160848967296,0.18432350315350834
66,1456704055680287,0.029691794725540534,0.021068258211734116,0.21027606640427576
67,1456704055695288,0.036008657310810425,0.018026818481673687,0.22374079477536024
68,1456704055718808,0.04834262429513604,0.018130172980259675,0.22250145979561778
69,1456704055740370,0.06383179083429512,0.020764825673714182,0.2072385145679968
70,1456704055762316,0.0783535156103835,0.02480111468451073,0.18163837549529527
71,1456704055778371,0.08777249848428617,0.029002602991588522,0.15161371187506534
72,1456704055800370,0.0893695656597539,0.03237662626603155,0.12371221317581903
73,1456704055816381,0.0828023658363881,0.03436216612848206,0.1031534159566235
74,1456704055838485,0.07018505998436,0.03484202437124204,0.09222893636524256
75,1456704055860492,0.05531852005326365,0.03403635643369224,0.08986973254103503
76,1456704055875336,0.04242515547175899,0.03235489697028375,0.09281675810922539
77,1456704055899337,0.03485851496467503,0.030266882465133867,0.0980101875349491
78,1456704055920352,0.03421524782160891,0.02822052696065795,0.10496489843981398
79,1456704055935366,0.0400809606361732,0.02661863469918653,0.11669458766080415
80,1456704055958362,0.05037143402775722,0.025822241770239666,0.13847263043365712
81,1456704055979364,0.06207310669159311,0.026122191764132205,0.17493606461658395
82,1456704055995393,0.07219673158591795,0.027638944015385847,0.22694591258283037
83,1456704056027222,0.07876416646964352,0.030197758866535248,0.28971420499536144
84,1456704056039707,0.08151541757711508,0.033298555005273046,0.35308814943860634
85,1456704056055505,0.08192428637179547,0.03625685491132054,0.4039729517037852
86,1456704056078507,0.08236407679068351,0.03844989673724079,0.4300709376822631
87,1456704056102509,0.084826624662201,0.03949891588918411,0.42364850916515434
88,1456704056116035,0.08996201313004079,0.039272865765993994,0.38402583561691095
89,1456704056138617,0.09700514569516762,0.03777701049945912,0.31792590374353163
90,1456704056160618,0.10457807707708294,0.035124842688778087,0.23761082149646084
91,1456704056176619,0.11181502353967393,0.031733989697551875,0.15762002814789897
92,1456704056198620,0.11902510503259464,0.02865540727403669,0.09147646525456402
93,1456704056220220,0.12735386117936304,0.02773250577784595,0.04951838680397071
94,1456704056235437,0.13758055699615176,0.03129080706913513,0.03811351039979561
95,1456704056258437,0.14884217381879053,0.04130577361401787,0.059640448533932855
96,1456704056279438,0.15819271547419764,0.05833500998238374,0.1124755001271844
97,1456704056295473,0.16144724614199177,0.08073056688810162,0.19074244814485106
98,1456704056319244,0.15508517445438855,0.10462629788584606,0.28418377860735083
99,1456704056340474,0.1384274894086415,0.12490328559490911,0.37877191606637073
100,1456704056356255,0.11506163337147093,0.13690101544937855,0.4585263820650846
101,1456704056378396,0.09272161181900489,0.13826440348879243,0.5085222844932386
102,1456704056402397,0.08148423206890108,0.13015015033101962,0.5184517557754234
103,1456704056416152,0.09083542400627884,0.11714693182081652,0.4856305181927743
104,1456704056453418,0.12649849024224163,0.10572775030299028,0.4163079253442272
105,1456704056461416,0.18788331357071017,0.10174386787314899,0.3246145412415965
106,1456704056476417,0.26691721636241694,0.10805769290861918,0.2292714760430225
107,1456704056498421,0.34897266556567275,0.12347192019475395,0.148951040497422
108,1456704056521937,0.4162390239362324,0.1434785774643499,0.09762918551101406
109,1456704056542454,0.4528563972650288,0.16237427193671508,0.08128039023749972
110,1456704056559447,0.44994789931262563,0.17561211632237306,0.09687687695540957
111,1456704056581449,0.40841060658232464,0.18127962767518502,0.13400995872599736
112,1456704056595464,0.3383162085410846,0.18017247302868664,0.1786865453354146
113,1456704056619012,0.2553082831688419,0.17465197290767656,0.21806982791875495
114,1456704056641483,0.17556406279389378,0.16699204417149643,0.24438815844557257
115,1456704056655484,0.11132478948209298,0.15810932464483782,0.2564098019677674
116,1456704056678485,0.06862168037987591,0.14736798748873076,0.257995537279081
117,1456704056701486,0.04771491047006706,0.1335319906331362,0.2547461011234449
118,1456704056724007,0.04539814674634457,0.11616548439720709,0.25065625552261334
119,1456704056738508,0.057527437227416954,0.09645329573660777,0.24641342682875222
120,1456704056761509,0.0804268004698626,0.07688527073036229,0.23983967778009052
121,1456704056782550,0.11087770268160242,0.060128840380282794,0.22776864406959957
122,1456704056798511,0.14535356402394523,0.04792760996162542,0.20807012979945796
123,1456704056822031,0.17942656501911172,0.04066303031459171,0.18080533033015195
124,1456704056843007,0.2079267963540049,0.037629432185694776,0.14827465219545763
125,1456704056858945,0.22588788882849,0.037630964880224466,0.11436230122823327
126,1456704056881734,0.22989214834688543,0.03945623520379199,0.08367027539205317
127,1456704056903011,0.21926301931132833,0.04203148759121798,0.06062730707133944
128,1456704056919486,0.1966285649352516,0.04435791230003057,0.04854646944162873
129,1456704056941758,0.16757236681910728,0.04547799650147522,0.04874352072812386
130,1456704056962761,0.13929691936787428,0.04461441854009312,0.06008699253921484
131,1456704056978779,0.11850097237031706,0.04141408677027325,0.07933250067641989
132,1456704057008762,0.1090848222479073,0.036112705063889944,0.10220391729596558
133,1456704057022771,0.11065158532712316,0.02949132336798667,0.12473108023570738
134,1456704057038778,0.11865708846140675,0.02263918235414807,0.14421835951862289
135,1456704057061780,0.1263178102596196,0.016634578112388873,0.15948648506928909
136,1456704057082781,0.12742734341582748,0.012260597742792737,0.17045375687554387
137,1456704057099019,0.11873664750687646,0.00983141201666031,0.177401812823777
138,1456704057122237,0.10086514008598495,0.009165062170476477,0.18030767642756224
139,1456704057142329,0.0775715234104778,0.009701311024985525,0.1785119520720404
140,1456704057158192,0.05402418329320587,0.010719874127067467,0.17085768933934145
141,1456704057180193,0.034995618673638026,0.011580397204192107,0.15631176916653702
142,1456704057202199,0.02362596461261031,0.011902239840463333,0.1349158342548459
143,1456704057218709,0.020909375829420075,0.011632701392091053,0.10868184844257454
144,1456704057240227,0.025746059059984883,0.0109992528138192,0.0818798760333143
145,1456704057262387,0.03538473896778225,0.010379861489881402,0.06028866335618179
146,1456704057279228,0.04618565220411167,0.010142597011754555,0.049464707358646796
147,1456704057301350,0.05463965162405554,0.010504930406203625,0.05268730678419047
148,1456704057323185,0.058416677296997926,0.011451558041921751,0.0695416792176123
149,1456704057339384,0.057041758173058274,0.012731443331901005,0.09586269625302025
150,1456704057361149,0.051854639777461756,0.013935831695522208,0.12509747716135292
151,1456704057384351,0.045254952258343493,0.014640490165776428,0.15045255088564227
152,1456704057399353,0.039618232350451275,0.014569525992844026,0.16687405093624974
153,1456704057428859,0.03638967130672939,0.013711154365291526,0.17211844374140037
154,1456704057443362,0.035687002574108145,0.012322065626425623,0.1667150461902448
155,1456704057458363,0.036471675290152515,0.010814935132781932,0.15312411526872682
156,1456704057481365,0.03715095753885266,0.009592608379494464,0.13459914518826438
157,1456704057504377,0.036378835246425156,0.008914767395285255,0.11419377712635298
158,1456704057519155,0.03378994180152945,0.008851180133362386,0.09418015633734816
159,1456704057540989,0.03039979020126946,0.009324929331875226,0.07596215400897804
160,1456704057563990,0.028452930663942007,0.01020699681726168,0.06037852039138955
161,1456704057579131,0.03066168008132833,0.01140264304610408,0.04812708499587462
162,1456704057601256,0.039058398694237065,0.012879335349681392,0.03999354225791479
163,1456704057624356,0.053932035488571305,0.014621050868157917,0.036711639733495637
164,1456704057639000,0.0733356432546415,0.01653446597986859,0.03856218090527309
165,1456704057661003,0.09340968213013846,0.018364138409794582,0.04503812468856598
166,1456704057684003,0.10944158048201875,0.019688474017318835,0.05487595732096179
167,1456704057699040,0.11735341094407876,0.02004654350124297,0.06649285080774185
168,1456704057721030,0.1152026777277169,0.01917250083373938,0.07857238906131675
169,1456704057744038,0.10424184475851636,0.017223736789458394,0.09040906661268215
170,1456704057765044,0.0891230117722536,0.014857457923025476,0.10174258100290859
171,1456704057781050,0.0770225087063392,0.013079028750130037,0.11215557274793314
172,1456704057804041,0.07578171743572526,0.012908874451937658,0.12049374879835537
173,1456704057819103,0.09148408601369543,0.015007586093128852,0.12488909826408538
174,1456704057841086,0.1261081556409941,0.0194144916758748,0.12362027651165573
175,1456704057864087,0.17603107853853758,0.025505224003801157,0.11640693644007401
176,1456704057885117,0.23218355920605457,0.032196775077952336,0.10530916982157153
177,1456704057901301,0.2823226007261856,0.03835324527172976,0.09456043719024242
178,1456704057924298,0.3149874139575583,0.043270393960055685,0.08926646870287241
179,1456704057944843,0.32360332175005474,0.04703621813847001,0.09347317445384509
180,1456704057961555,0.3087542748391938,0.050535022687183885,0.10832833320046903
181,1456704057984558,0.277405400987051,0.05498302013441568,0.13101554150661787
182,1456704058004784,0.23948084565953381,0.06115505223188922,0.15500904425710627
183,1456704058021115,0.20366787427561212,0.06871663432346248,0.17190381737033997
184,1456704058043805,0.1746268377146788,0.0761016823721129,0.17441593589557888
185,1456704058064807,0.15270106332051492,0.08110350049937806,0.1593381816774883
186,1456704058080808,0.13558324776125633,0.08190936125541469,0.12896595439677652
187,1456704058118023,0.1204678650152156,0.07798404638887296,0.09021902364815297
188,1456704058125292,0.10548228379150561,0.07026763055623148,0.0519555278271404
189,1456704058140752,0.09005432966456874,0.060619629101985886,0.021875348191115685
190,1456704058163754,0.0745628247966062,0.05094972220181504,0.0043794447997788696
191,1456704058185037,0.05983276833967288,0.04258024981785875,0.0
192,1456704058200756,0.046845382346904836,0.036062178972135386,0.006169672368734298
193,1456704058224364,0.036659673276784266,0.03130901843561199,0.018642033546119978
194,1456704058244857,0.03030162517864038,0.027833142003625334,0.03290178676797305
195,1456704058260853,0.028450267947869118,0.024990380184398663,0.04519840286378207
196,1456704058283853,0.031006750925011105,0.022220809027621514,0.05312143358632367
197,1456704058306878,0.036814312547160936,0.019242782744756277,0.055769595913549457
198,1456704058321154,0.043775841588047926,0.016121966896805482,0.053579376841025025
199,1456704058343663,0.049427314732406066,0.013181841261578347,0.04788211288590185
200,1456704058366664,0.05178335034463717,0.010809260544803658,0.040323773271554786
201,1456704058388664,0.050097106115285193,0.009259599213649829,0.03235817756562169
202,1456704058403665,0.045160897462383276,0.00855093210494344,0.02499584540279212
203,1456704058426961,0.03895664368081696,0.00847860771162371,0.018843055891347847
204,1456704058440281,0.03378820969671628,0.00872011176646101,0.014305876335587846
205,1456704058464282,0.031308196349472836,0.008966009769147498,0.0117596092240947
206,1456704058486402,0.03189910951255468,0.009017195237292297,0.011531723870536957
207,1456704058500404,0.03465123679027431,0.008819684161134968,0.01369527812773544
208,1456704058524075,0.03785691483588699,0.008440178576862814,0.017826381569428295
209,1456704058546378,0.039731826854529535,0.00800292916372304,0.022931200788936432
210,1456704058560402,0.03906850816252883,0.0076155882242737016,0.02765966357150037
211,1456704058583380,0.035635640651938166,0.007315828358818632,0.030749023689521197
212,1456704058606397,0.030242662747654254,0.007066389894477886,0.0314858206922979
213,1456704058620673,0.024482775133895438,0.006807019376665003,0.02994454192208252
214,1456704058643485,0.020268286439198133,0.006542109226555623,0.02688269501506052
215,1456704058666486,0.019326167202788187,0.006416496653086573,0.023359804978303447
216,1456704058680494,0.022779928688431674,0.0067245303432015065,0.020282008506193716
217,1456704058703487,0.030863683339381196,0.007820337712288584,0.0180960444638111
218,1456704058727345,0.04277967523120606,0.009946230921339607,0.016777997198473976
219,1456704058740576,0.056723380326460064,0.013048723818894051,0.01611876121251312
220,1456704058763578,0.07011587836586906,0.016679236867131225,0.016143592918052993
221,1456704058786579,0.08007531057800986,0.020058552795272296,0.01739333722959418
222,1456704058807585,0.08410072894117314,0.02231477557231034,0.020836428057974647
223,1456704058824119,0.08081308993878758,0.022807905324778895,0.027391863089138466
224,1456704058846613,0.07047361356332864,0.021390166606813574,0.03729486926503993
225,1456704058867613,0.055035273000046875,0.01847570102948905,0.049654487870102515
226,1456704058883650,0.037719422656597945,0.01489664309253603,0.0624752344872475
227,1456704058906651,0.022348885902027823,0.011629833022882508,0.07320132755878152
228,1456704058928122,0.012681947414631523,0.009519193876636725,0.07958515977507821
229,1456704058943677,0.011803984126282812,0.009084749419218436,0.0805031873071258
230,1456704058966643,0.021482838188396355,0.010443840328427382,0.07637001765544996
231,1456704058987889,0.04146078665232123,0.013322240664365244,0.06903596317768626
232,1456704059003840,0.06891387329730318,0.01712351068178845,0.061306621754159525
233,1456704059027388,0.09853921710170366,0.02104288814312105,0.056290552210895205
234,1456704059047982,0.12364338870736917,0.024229465488261253,0.056675060053054414
235,1456704059063983,0.13811325700944602,0.025991479690422276,0.0639632438301902
236,1456704059094246,0.1385596033205041,0.025999154812685523,0.07781194277124288
237,1456704059107983,0.12569372136350765,0.024399755560236408,0.09576863531865819
238,1456704059124309,0.10429537813011021,0.021772302637703723,0.11369979472719038
239,1456704059145960,0.08172372419147039,0.018925214161282455,0.1269698830087835
240,1456704059168082,0.06548439371808565,0.016621194088523524,0.13207783801176806
241,1456704059184192,0.06073016898493133,0.015340661358939226,0.12814638889543997
242,1456704059206194,0.06865810370837033,0.015170577545260563,0.11754866761842045
243,1456704059228448,0.08646268510323535,0.015858037083890844,0.10519543627145453
244,1456704059244035,0.10882770444077024,0.017002095204241136,0.09661736231345344
245,1456704059266038,0.1302072517756082,0.018284959425341512,0.0956918579019891
246,1456704059289304,0.1468111373038043,0.01961498107616809,0.1031824414312155
247,1456704059304306,0.1574711543130578,0.02110887349953387,0.11684114484931142
248,1456704059326060,0.16319810032377188,0.022950414573564806,0.13287438927696615
249,1456704059348370,0.16584368506404965,0.025243981365146318,0.1477432937207706
250,1456704059363371,0.1666318763493199,0.02796654888177725,0.1591610267225356
251,1456704059386424,0.16538118230357227,0.03102566009196195,0.16586726773443947
252,1456704059408370,0.16090660490738457,0.03434602806226645,0.166785743248028
253,1456704059424304,0.15231361142395042,0.037909251502087335,0.1606437368215701
254,1456704059445357,0.14011795496724702,0.04172819496736053,0.14658749813630384
255,1456704059468357,0.12616894477584062,0.04576567662743085,0.12529652311944325
256,1456704059483358,0.11241393658504086,0.049802244208197274,0.09961771099650908
257,1456704059505359,0.09963444312592776,0.05329673549710135,0.07416972072052727
258,1456704059530156,0.08727147189522352,0.055369905130391285,0.054114388621656094
259,1456704059543163,0.07439975318294176,0.05504477814910736,0.043676906741042985
260,1456704059565165,0.060936667130465375,0.051706073299617454,0.04493406818641548
261,1456704059588335,0.0481488680176438,0.04551849558441826,0.057175356929982414
262,1456704059603365,0.038227088971843085,0.03750415809855414,0.07697228350805208
263,1456704059625693,0.033332282422374584,0.029196369606785472,0.09894998726060471
264,1456704059649737,0.03465033500573594,0.022075391957755056,0.11709472899730608
265,1456704059663702,0.04180459364889221,0.017102706649387636,0.12629178180255665
266,1456704059686006,0.052770540979862654,0.01454564148910739,0.12371595229298875
267,1456704059709704,0.06432041574916011,0.014075857850336139,0.10968114503486177
268,1456704059723995,0.07293107355376292,0.015002755482620091,0.08761635976269165
269,1456704059745504,0.07591707299504676,0.01651077097300789,0.06305513842530401
270,1456704059768505,0.07234549320285939,0.01784480311450875,0.0419014745555631
271,1456704059789797,0.06328011971440436,0.018446191634817043,0.028580930042786484
272,1456704059805507,0.051236857561725274,0.01804481703875683,0.02476717883106461
273,1456704059828801,0.03919340293243407,0.016687515327320126,0.029127095421732672
274,1456704059850099,0.029689625994273675,0.014681069779799258,0.03809526886681527
275,1456704059866100,0.02435231411657727,0.012464769069825103,0.047289205584020326
276,1456704059890101,0.023818059233083482,0.010465132078510974,0.05298252590595337
277,1456704059912101,0.027818435432859685,0.008985788248009588,0.05313099439242003
278,1456704059926114,0.035246349934741725,0.008156588651128406,0.047709777314141597
279,1456704059949124,0.04423095430687811,0.007938679921952392,0.0383941529993232
280,1456704059969126,0.05238865751208333,0.008169094067260645,0.02779105540511683
281,1456704059985126,0.057348689903931375,0.008624742109861352,0.01850893680564745
282,1456704060009138,0.057437606910439185,0.00908765095488612,0.012361222904492859
283,1456704060029648,0.05223326405860861,0.00939826775284635,0.009930144249532261
284,1456704060045158,0.042704209149264524,0.00948663919486409,0.010582130111570293
285,1456704060069258,0.030848761561298097,0.009371677424296065,0.012867471749812173
286,1456704060090260,0.019022080681295368,0.00912486603130527,0.015114602317687697
287,1456704060106291,0.009298118639274568,0.00881226039010128,0.015990033955772708
288,1456704060129118,0.0031394084268937896,0.008447604366397026,0.014851929341684863
289,1456704060149575,0.001413037603388533,0.007992111657457097,0.01184314481219826
290,1456704060165574,0.004583138221348061,0.0074156473465133805,0.007777707849928349
291,1456704060188575,0.01285595163648462,0.006797631144236279,0.003916631219137829
292,1456704060211576,0.026144361897139725,0.006410882892586073,0.0017018604806946264
293,1456704060225906,0.04386113333722424,0.00671914414455482,0.0024612096108650545
294,1456704060248379,0.06465026448249629,0.00824635171408375,0.007064159591003905
295,1456704060272382,0.08620077489576336,0.011340241977255226,0.015540678235380497
296,1456704060285380,0.1053051493019147,0.015925937301767102,0.026779133973122
297,1456704060308381,0.11833845388453515,0.02138527235023178,0.038530755789334216
298,1456704060331687,0.12224545773410155,0.026668474628750147,0.04793852431537043
299,1456704060345980,0.11584168164763067,0.03063530525687229,0.0525805268853274
300,1456704060369211,0.10087513605851449,0.03247662490879015,0.05164655509378263
301,1456704060392252,0.08216619245477079,0.0319886445445523,0.04662192553971693
302,1456704060406249,0.06646111026159028,0.029550886246067505,0.040992916622199435
303,1456704060428755,0.0602695540545203,0.025858147469585802,0.03899514322557446
304,1456704060451941,0.0675126435505842,0.02161127271551195,0.04397186647775624
305,1456704060466205,0.08796284292413688,0.017350997260553697,0.05711561291614453
306,1456704060489206,0.11715965507681679,0.013469011532514515,0.07711743714025462
307,1456704060512207,0.1478848893934386,0.010302934333318348,0.10075937982954312
308,1456704060526303,0.17262705989412486,0.008204055873574506,0.12407751649607314
309,1456704060548927,0.18606965539520337,0.0075276411173990304,0.14357207630418065
310,1456704060571895,0.18670812515042384,0.008562451111681404,0.15703995684773572
311,1456704060586159,0.17711630986929697,0.011447820197171481,0.16383923266238737
312,1456704060609162,0.1628375923492417,0.016125499410196715,0.1646230457706652
313,1456704060632222,0.15024029509833112,0.022352839468106487,0.16073296722578126
314,1456704060645846,0.14402927076991118,0.02976536628035815,0.1535475271202179
315,1456704060668870,0.14539693306887821,0.03794015736660199,0.1441099655727825
316,1456704060692115,0.15170624085236833,0.04642702776317021,0.13317225044000208
317,1456704060712849,0.15789689916825836,0.05477731767364579,0.12143573768245614
318,1456704060729145,0.158843627500011,0.0626047564864162,0.10961116300799864
319,1456704060760031,0.1514380028168576,0.0696139416448196,0.09819489203609978
320,1456704060773032,0.13555857321283485,0.07548298842690919,0.08726031963055624
321,1456704060789253,0.11385383072349807,0.07964265624103856,0.0766136635105578
322,1456704060812253,0.09071484765726802,0.0812136558108105,0.06630275828537602
323,1456704060833015,0.07084329434296334,0.07932660801125353,0.05707504547478806
324,1456704060848969,0.05776900249601775,0.07370007603435798,0.050331291395322324
325,1456704060871970,0.052743551435945155,0.0650369354351415,0.04745594300283251
326,1456704060893272,0.05445184628759251,0.05487268743354241,0.04886323545901955
327,1456704060908972,0.05970119771543828,0.04492838869080766,0.053360249059785356
328,1456704060931999,0.0647720178154569,0.036403109543107326,0.058315413792876004
329,1456704060953008,0.06682181675033982,0.029658387840933817,0.06067110472501079
330,1456704060969007,0.06481315955287517,0.024419618005416643,0.05830762553316723
331,1456704060991017,0.05970983862996177,0.020252067682245183,0.051015825145809
332,1456704061013009,0.05393655530339585,0.016945545098789674,0.040566853956742574
333,1456704061035021,0.050317964041667815,0.014593041333622724,0.029907217709863935
334,1456704061051042,0.05091666618868036,0.013398127515231034,0.02194932623423157
335,1456704061073050,0.05624233969354015,0.013405363394963352,0.018516399375542773
336,1456704061089043,0.0651138657728212,0.014347535375897485,0.019810819884720863
337,1456704061111044,0.0751455088426554,0.015690322795550854,0.024515874667142033
338,1456704061133198,0.08359111285595656,0.016824971320986565,0.03042005569727067
339,1456704061148266,0.0882004203110704,0.01728844932658169,0.03529192598502979
340,1456704061170267,0.08780447401559878,0.016899785159639552,0.037668831226999204
341,1456704061195268,0.08250491492832852,0.015764936475869466,0.03728486619048211
342,1456704061208270,0.07350890242899,0.014174939214724343,0.035016739153281504
343,1456704061230652,0.0627314249393332,0.012464908332670971,0.03240054592787853
344,1456704061254160,0.05227627614269749,0.010901898838568751,0.03092501886205218
345,1456704061268161,0.043904094913375706,0.009640136902611394,0.031403304714903435
346,1456704061291313,0.038645964226628436,0.008743910091669332,0.033697714635894785
347,1456704061314164,0.03672449949776028,0.008248717118053623,0.03688647810097435
348,1456704061328958,0.03780506151966496,0.008220345390749997,0.039723614767522133
349,1456704061350697,0.041399542710266364,0.00878069349493439,0.04112817939717593
350,1456704061374697,0.04716259255747923,0.010090487582855344,0.040505362201077574
351,1456704061388725,0.054919230015251626,0.012298684222156905,0.037848529746469316
352,1456704061410700,0.06445015603255455,0.015475132174144372,0.033676183633170584
353,1456704061441808,0.07520862740298395,0.01954042285177279,0.028884205011808245
354,1456704061450781,0.08618406273062244,0.024209532642464764,0.02457276993684
355,1456704061470782,0.096062041860052,0.02897774535113475,0.021878601221577195
356,1456704061494783,0.1036891017346155,0.033182000500076324,0.021825987936892072
357,1456704061508784,0.108678409408621,0.03615081455406566,0.025206249822239592
358,1456704061531077,0.11185483562590125,0.037414249208814906,0.03249615602764027
359,1456704061555372,0.11522005400475527,0.036904283440729005,0.04380862139961903
360,1456704061568374,0.12127948404201452,0.035060023383063646,0.05882615721009215
361,1456704061590374,0.13188411211761908,0.032773549396373114,0.07666698174066228
362,1456704061614376,0.147067817819426,0.031167118830926543,0.09576287713673902
363,1456704061635174,0.16451125841910513,0.031262877445511025,0.11399309834432525
364,1456704061650993,0.1800722425659982,0.0336561712584933,0.12925165245000172
365,1456704061674995,0.18930658408497086,0.03829611016539251,0.1402572601146581
366,1456704061695182,0.1893411209634883,0.04442304526377528,0.1470821673722682
367,1456704061711228,0.18019876893283138,0.05067286584066844,0.15095232885001214
368,1456704061734984,0.1648625595270787,0.055362769749630454,0.15333054854296352
369,1456704061754730,0.14793453557206213,0.056970684609031805,0.15478291565265292
370,1456704061771019,0.1334938560985655,0.05473730050699847,0.1543315657646443
371,1456704061794993,0.1233150711492839,0.049167886067515945,0.1497851684694131
372,1456704061814946,0.11651112338280528,0.04212774834301746,0.13897395496496825
373,1456704061830958,0.11077255065067464,0.036355599555568656,0.12122009421436838
374,1456704061854968,0.10424626084276249,0.03452067423886605,0.09819632398916406
375,1456704061875254,0.0966946108325788,0.03819384788798581,0.07371369751041569
376,1456704061890970,0.08927636176557227,0.047135796868308856,0.05260387676897818
377,1456704061913972,0.08340523638872094,0.059189273582751244,0.03925510380250431
378,1456704061936268,0.07968666312527324,0.07089368848824955,0.036339582556677984
379,1456704061950277,0.07764103148266599,0.0786882450242298,0.04402487065881917
380,1456704061973277,0.07623930644644279,0.08024288497451802,0.059787396146506536
381,1456704061995320,0.07473946183153303,0.07527892379987335,0.07891040152417528
382,1456704062010279,0.07319753650797033,0.06546161275255884,0.09568225708293425
383,1456704062033806,0.0723290834990264,0.05348555166765119,0.10507452970064583
384,1456704062055348,0.07286414530565682,0.041921983789930374,0.10436419248402985
385,1456704062070314,0.07484488629199118,0.032418259414804126,0.09403484986997568
386,1456704062093350,0.0773156926478801,0.025496372813369906,0.07752507735852714
387,1456704062116316,0.07861913895407059,0.020824974033648688,0.0598912227921811
388,1456704062130841,0.07715141120226417,0.017680650109452137,0.045936528527359105
389,1456704062153369,0.072119441434857,0.015360515340455308,0.038576920514596554
390,1456704062176334,0.06384247855166117,0.013426184813167305,0.038064012014800114
391,1456704062190335,0.05350129647148171,0.011758130685588205,0.04225911816705877
392,1456704062213338,0.04261382990228823,0.010464343752056932,0.04769958870271014
393,1456704062237096,0.03257745328663458,0.009723910499760931,0.05095449841518534
394,1456704062250351,0.024426382184830793,0.009648194529542782,0.049779611956454514
395,1456704062279353,0.018761355560004123,0.010209044463892952,0.04374660060917848
396,1456704062296354,0.01574917935008813,0.01123720243056737,0.03422455302823417
397,1456704062311354,0.015140383934397332,0.012466729480097137,0.02378212077789274
398,1456704062333900,0.01632405265296465,0.013604338872841206,0.01523898676991728
399,1456704062357119,0.018450438858674905,0.014413707197374755,0.010695035845875429
400,1456704062371085,0.02060871633425395,0.01479597966867141,0.010863438072182029
401,1456704062393883,0.02201776094109592,0.014827093557845025,0.014919891749882626
402,1456704062423157,0.022207367942530903,0.014717607280448165,0.020895120873263895
403,1456704062431162,0.021190378948202998,0.014704042348999524,0.026445204177004786
404,1456704062453175,0.01958975786102229,0.014927729981779894,0.029694973703909673
405,1456704062476175,0.01861368049878878,0.015366414557013718,0.02982305804091721
406,1456704062491177,0.01977713904502868,0.015851314286106404,0.027177952625014764
407,1456704062514178,0.024401197197361373,0.016156448372036013,0.022935412672521114
408,1456704062537158,0.03308278472133349,0.01611585367446084,0.018507817446862068
409,1456704062559164,0.04538177059603981,0.01571762819846474,0.014995012650168562
410,1456704062573083,0.05988631096212921,0.015137244237371304,0.012904358967873075
411,1456704062596088,0.07465748581112079,0.01469686611207204,0.012210888303074091
412,1456704062618161,0.08789404716596647,0.01476346479591843,0.012653353642131306
413,1456704062634069,0.0985551259380187,0.015620134203862988,0.014057750900459598
414,1456704062656794,0.10668129695285795,0.017356877600311217,0.016507499400198966
415,1456704062678072,0.11326336005826396,0.019822201037367242,0.020308623778992077
416,1456704062693951,0.11966686981253098,0.02265211633302674,0.025816933395730556
417,1456704062716798,0.12679395329143564,0.025359062230929822,0.03322779511704296
418,1456704062737842,0.1343445356358825,0.027441961539678664,0.042414257103281505
419,1456704062753313,0.14061770461444362,0.028487896524269217,0.052894077613900595
420,1456704062776315,0.1431075687297902,0.02826725875949838,0.06398943942906592
421,1456704062797315,0.1397476441986612,0.02684157204690535,0.07516340672960323
422,1456704062813316,0.1303039994811776,0.024681166690057814,0.08638798213662376
423,1456704062836580,0.11726956391063668,0.02274666660388079,0.0982961851625513
424,1456704062858126,0.1056820472888231,0.022457684982300226,0.11188112582560927
425,1456704062874088,0.1016315829127542,0.025465856602691742,0.12769082355368855
426,1456704062896088,0.1098549243400736,0.03318153814872805,0.14481392785869346
427,1456704062917089,0.13145803008645027,0.04611689116125837,0.16028952993821613
428,1456704062934134,0.16299542677064846,0.06330134186038967,0.1695911421210979
429,1456704062962381,0.1975640198928047,0.08215992784589926,0.16830419999741558
430,1456704062977303,0.22742318255896132,0.09911628674792602,0.15425743842411194
431,1456704062993303,0.24665999768638194,0.11075725984557018,0.12887154951706875
432,1456704063016304,0.2524538244301392,0.11496720106389362,0.09689734291125697
433,1456704063038031,0.24468121828624395,0.11142854026999838,0.0647568247044104
434,1456704063053540,0.22486479434779194,0.10136748979048522,0.03848371737846489
435,1456704063076539,0.19555852694221817,0.0869345140548283,0.022214384611136357
436,1456704063099541,0.16027117858409215,0.07064555470754132,0.01757249311957455
437,1456704063113543,0.12326617320893311,0.05496373782374414,0.023753044744857225
438,1456704063136968,0.08883757324090033,0.04188800698840475,0.03795877014383017
439,1456704063159967,0.06036893637421389,0.03254891577836921,0.05599137080002821
440,1456704063174004,0.03972465113154541,0.02700541084490644,0.07302430149102392
441,1456704063196755,0.027208437555865914,0.02439676783312854,0.08464042647143327
442,1456704063219756,0.021938580869248957,0.02338976498830411,0.08799190470091511
443,1456704063234131,0.022345375101578926,0.022702470193838583,0.08262723941703548
444,1456704063256716,0.02657522638358826,0.02148803562651711,0.07050911640481061
445,1456704063279718,0.032751753228630255,0.01947127179406146,0.05514867724219158
446,1456704063293969,0.0391559827626833,0.016855000433770157,0.04029807007105541
447,1456704063316721,0.04438363704666786,0.014093229983393728,0.028832816181558675
448,1456704063339513,0.047476333594508334,0.01164745666864257,0.022204600412892378
449,1456704063353521,0.04798687143871419,0.009814755308474594,0.02044721630327958
450,1456704063382527,0.045949982388702154,0.008666397543237309,0.022512708085283176
451,1456704063399523,0.041772952798335976,0.008086123578460586,0.026742286265437443
452,1456704063413524,0.03609699063996961,0.00786509400163925,0.03135407548079177
453,1456704063437010,0.02967313918199609,0.007803445697463013,0.034849690381453434
454,1456704063459978,0.023260712725391458,0.007782064157505953,0.03625779875504677
455,1456704063473980,0.01753809518831854,0.007790088588808665,0.035200619364589236
456,1456704063496981,0.013024608988003603,0.007910792532544246,0.03184634031129622
457,1456704063519982,0.010024541783952848,0.008277811871761846,0.026829278163162378
458,1456704063535008,0.008610336113234909,0.009021062358248443,0.02117337171710514
459,1456704063556518,0.008662141676156926,0.010227817255238865,0.016188652354905315
460,1456704063579520,0.009967533514100603,0.01194006250744024,0.01327557092722753
461,1456704063600521,0.012356303806706825,0.014187828787957959,0.013600865775248773
462,1456704063616522,0.015816369075513037,0.0170286370963401,0.017702615898608037
463,1456704063639822,0.020524781130511947,0.020547232739005283,0.025197160109499888
464,1456704063661832,0.026746687890484386,0.024786235290965,0.034811138101998707
465,1456704063676833,0.03462492898676132,0.02962669337483681,0.04486902359403589
466,1456704063700239,0.04399489450654429,0.03469085966723101,0.05413325103756542
467,1456704063721138,0.05441946397080488,0.03935592771935104,0.06263642008596312
468,1456704063736862,0.06551787865436941,0.0429209859760673,0.0720218926592141
469,1456704063760100,0.07737542401990584,0.04487549120672889,0.08502748716772239
470,1456704063781003,0.09061744607639292,0.045131050949707215,0.10413347972749463
471,1456704063796872,0.1058847912025929,0.044067950517676764,0.1299348780108352
472,1456704063818873,0.12292359934306545,0.04234964976267143,0.16014720542413693
473,1456704063847985,0.1399301574416356,0.040621074456198614,0.18995585775728685
474,1456704063857263,0.15380362174304477,0.03929743417002246,0.21372108368370452
475,1456704063878986,0.1614786630959095,0.038572562135418924,0.2273275400329796
476,1456704063901229,0.1617638899618674,0.03858913804005678,0.23013255133900337
477,1456704063916988,0.1565576243552443,0.03959046836808805,0.22557089829810037
478,1456704063938785,0.15044764507054956,0.041919430407371755,0.2199012166355333
479,1456704063960576,0.1486280988777281,0.045873998364398705,0.2193045057255624
480,1456704063976579,0.15422445641456375,0.051517589658907584,0.2264942704516533
481,1456704063998580,0.16663126524483876,0.058527145841020325,0.23868479172330948
482,1456704064021591,0.181853361247124,0.0661303067874097,0.24839691408369
483,1456704064036880,0.19448766592297806,0.07318480933721591,0.24695585750009605
484,1456704064058390,0.19996554407232373,0.07841368628680047,0.22874137077099468
485,1456704064081392,0.1958234667347947,0.0807074109451031,0.19382688085136981
486,1456704064096393,0.18179734063912778,0.07936895963650165,0.1478781877089756
487,1456704064118394,0.15935998761535025,0.07426883550711215,0.0998428846790006
488,1456704064141256,0.1312708054575351,0.06594202722648414,0.05880389679384047
489,1456704064156246,0.10115543508843872,0.05558581472593071,0.03125112963669038
490,1456704064179248,0.07287773484170221,0.04484376734187114,0.01950727694243008
491,1456704064201249,0.04972279156967312,0.03535849170605787,0.021559249677331745
492,1456704064216250,0.03370859995442677,0.02827249102675126,0.03216515385976295
493,1456704064239184,0.025306663414260126,0.02393108495562149,0.044786561322541635
494,1456704064261840,0.023604311650609226,0.02191222220494186,0.05368350086408047
495,1456704064276841,0.026752239881083065,0.021315160522212315,0.05549794311567441
496,1456704064298843,0.032492744267807176,0.02114664785686861,0.049865407623833576
497,1456704064321843,0.03861878470077721,0.02065904997335439,0.038961759538051484
498,1456704064336659,0.04331263447866082,0.01953985814299951,0.026280377532348267
499,1456704064366677,0.04538724817849976,0.01790141644184656,0.015190473551797931
500,1456704064381679,0.04445076372110378,0.0160961602828846,0.007835064676121339
501,1456704064396679,0.040946212220479145,0.01446499472628507,0.004695959444516875
502,1456704064418680,0.03597224559426826,0.013154683997443304,0.0048315165089942965
503,1456704064441863,0.030856878492053177,0.012088666582320018,0.0065497246684988394
504,1456704064462829,0.02661848615010507,0.011078626316855317,0.00818763791266417
505,1456704064479088,0.023573292924210384,0.009985273000108208,0.008710189826794229
506,1456704064503102,0.021312357348660656,0.008824598695972349,0.007964906485971318
507,1456704064523103,0.019082003473107022,0.007768443158633219,0.0065772591150073684
508,1456704064538574,0.016383336585702023,0.007058434683632035,0.005589906863646399
509,1456704064561204,0.013486160914896992,0.006892426033337552,0.006002304461628958
510,1456704064583206,0.011585733674519084,0.007339714806153702,0.0083589661098115
511,1456704064606085,0.012492540758771329,0.0083138844788783,0.012498584044783054
512,1456704064621161,0.01795378033699547,0.009602715989564666,0.017536870606881104
513,1456704064643204,0.0288666336473021,0.010934848236513592,0.022109296495656003
514,1456704064658204,0.0446993867534716,0.012056469469661811,0.02483169174377266
515,1456704064681179,0.0633755597145994,0.012798424622835161,0.024852385652045332
516,1456704064703194,0.08172069987884252,0.013126276424740575,0.022307079601333327
517,1456704064718201,0.0963745067043794,0.013168222452331867,0.018497781257468735
518,1456704064734211,0.10490098921008925,0.013205743523387851,0.015708523209574846
519,1456704064754981,0.1067325478093708,0.013607962423918976,0.01668054653954018
520,1456704064777983,0.10357830003906623,0.014710558302163649,0.02383524158834183
521,1456704064793130,0.09903314381859564,0.016675190258625787,0.03838808640489384
522,1456704064815130,0.09736794379970833,0.019389632128307147,0.05961901921802532
523,1456704064838202,0.10184536573207127,0.022466608817713667,0.08469653202965656
524,1456704064852513,0.11325448100046381,0.025369325649197548,0.10937645141643057
525,1456704064874219,0.1294234965599534,0.027632911662363643,0.12948800348360517
526,1456704064897511,0.1460483832446963,0.029080697047591985,0.1425761347364254
527,1456704064920549,0.15843234893312863,0.029910217517522455,0.14879850960253901
528,1456704064935008,0.16320100897398984,0.03059018471827988,0.15046737399922236
529,1456704064957798,0.15916652085356056,0.03162432040209941,0.15039954741251527
530,1456704064972528,0.14716103071897982,0.033311460784363034,0.15003636138964274
531,1456704064994524,0.12932446666868044,0.03562117596431359,0.14854451980269331
532,1456704065017748,0.1084961610955134,0.03823264808395383,0.14351776510452632
533,1456704065031963,0.08791920163999495,0.04069846086232682,0.13279364823117232
534,1456704065056043,0.07090545787627722,0.04263198839849222,0.11613045632349714
535,1456704065078187,0.060084142839429075,0.04380063588063229,0.09570443341768649
536,1456704065093189,0.05641007617625792,0.04406592032904926,0.0753105254194864
537,1456704065115144,0.0585901454274221,0.04324610127448368,0.05889541368632012
538,1456704065137873,0.063470438476641,0.04108119374137258,0.04915895476357877
539,1456704065152352,0.06733545437241464,0.03740863974098741,0.04670657467437571
540,1456704065175353,0.06748592724545655,0.03243865984581693,0.04998010114484568
541,1456704065198742,0.0632702801401853,0.02687590544163478,0.055947213913642525
542,1456704065212494,0.056060667212761435,0.02173076342026097,0.06123826095238982
543,1456704065235160,0.04829233462415194,0.017908776733053897,0.06323928420750397
544,1456704065258034,0.04220653062607941,0.01583557362992417,0.06074032409353618
545,1456704065272706,0.03899949655735972,0.015342639604666312,0.05401563334001261
546,1456704065294701,0.03868901221038363,0.015857460566890965,0.04445836598503649
547,1456704065317963,0.0405163889354996,0.016752864627513075,0.03399625254644407
548,1456704065332919,0.04347244103885218,0.017637346421292433,0.024515363931437138
549,1456704065354909,0.046648146475296706,0.01843991174884807,0.017464041197606254
550,1456704065377908,0.04936287892268991,0.019287608423149312,0.013697576277669252
551,1456704065392915,0.05118188310419785,0.0202872697545704,0.013491918358240559
552,1456704065414877,0.05192151072084825,0.02135077337031513,0.016600141844902345
553,1456704065438152,0.051638894099131694,0.02215724693716576,0.02229457822958847
554,1456704065452393,0.05055869891281911,0.022266790351173214,0.02944652289686345
555,1456704065476387,0.04896311078435587,0.021327694634086746,0.036720828005099584
556,1456704065497389,0.047151651340303316,0.01928155066986037,0.042878157106102946
557,1456704065521389,0.04552518834963081,0.016476922349382615,0.04707309206103531
558,1456704065534984,0.044706706543385266,0.01363922648646747,0.04901648891328137
559,1456704065557996,0.04555181004329068,0.01169436756837303,0.04894990296257173
560,1456704065580997,0.048983533089747074,0.011496262105435768,0.04748030909414609
561,1456704065595203,0.055705964650181315,0.013550012197786222,0.045366267599228224
562,1456704065618172,0.06590977601298623,0.01783046147291841,0.043324591757517086
563,1456704065640828,0.07907699031992362,0.023759374476018454,0.041885299311351994
564,1456704065655169,0.09396169303523848,0.03034324334488017,0.04130591289682842
565,1456704065678139,0.10878612417921311,0.036421970204523535,0.04157500004220605
566,1456704065700799,0.12164195951902171,0.0409544044635038,0.042565336640485
567,1456704065715071,0.13102141879167048,0.04326664930852629,0.044387591547163124
568,1456704065737800,0.1363392598210303,0.04320704152675862,0.0478838525955489
569,1456704065761126,0.13827003365227308,0.04118395400370878,0.054979892472313996
570,1456704065775124,0.13872525363610896,0.03809131766338941,0.06844663527289704
571,1456704065797055,0.1403498148563427,0.03512888201172319,0.09079716261857981
572,1456704065820063,0.14557684304935894,0.033518094062998174,0.12263919061782383
573,1456704065834886,0.15554226150604225,0.03415214194338924,0.16139133228933
574,1456704065858121,0.16937381920569833,0.03729352360610639,0.20128944020765302
575,1456704065881115,0.18432304410813052,0.042458121571514094,0.2349826003658132
576,1456704065895120,0.19681478652982595,0.04854938476514978,0.2561915842203036
577,1456704065918159,0.2039179232440149,0.05418603525826845,0.2623205940336054
578,1456704065941128,0.20440945383215767,0.05809886899107995,0.2557691828284366
579,1456704065954142,0.198847935291154,0.05949051746545715,0.24307757067637964
580,1456704065977143,0.1887452903845867,0.058295621990141766,0.23196761277919103
581,1456704066001158,0.1755164164007553,0.055273457350668104,0.22752833923451932
582,1456704066015139,0.1599917737575448,0.05184016685195548,0.2295697272948443
583,1456704066037931,0.14281378629987246,0.04960942959405686,0.23278779044058548
584,1456704066061226,0.12526024323808893,0.04976919813203151,0.22975243005062762
585,1456704066075227,0.10958363656984713,0.052545435979924726,0.21491234824365252
586,1456704066098229,0.09836242307357962,0.05699087485394164,0.1872934822723111
587,1456704066120562,0.0932871322096381,0.06122458904176385,0.1506874352562299
588,1456704066135067,0.09427274734429987,0.06308831474151745,0.11175034001407089
589,1456704066158152,0.09940164939518248,0.06098630417352369,0.0773270479496832
590,1456704066180081,0.10555776217470934,0.05453001266411106,0.052238687213658035
591,1456704066195152,0.10936433251748118,0.04467502779552783,0.038189210748170596
592,1456704066218153,0.10812451001957606,0.0333138338274999,0.03384970423339652
593,1456704066240634,0.10053123775311092,0.022569198110703275,0.035815347093229415
594,1456704066254383,0.08694118708293254,0.014130375945974447,0.03999431037275835
595,1456704066277390,0.06915102042227854,0.008874021051521108,0.04295318217886073
596,1456704066308652,0.049815233642519045,0.00682530227511379,0.042781721199259874
597,1456704066314385,0.03174396758158104,0.007364691194616204,0.03924012840597288
598,1456704066337604,0.017301638891411446,0.00953498931375634,0.03329231069805306
599,1456704066361110,0.008054822502926749,0.012335244948304252,0.026392362824443807
600,1456704066375112,0.004698753355312976,0.01494448957496763,0.019890988373228315
601,1456704066398123,0.007151129250741437,0.016856461673963565,0.014718646434995486
602,1456704066421147,0.014648063123764415,0.017919313330403315,0.011305260617086057
603,1456704066437163,0.025777035737559583,0.018275860230338472,0.009645579032733852
604,1456704066458176,0.03853847898115879,0.01821530294409949,0.009449601478990802
605,1456704066480922,0.05057493048897636,0.017987234863265297,0.010318581920708456
606,1456704066495169,0.05960139819132993,0.017663425308146782,0.011865632671577137
607,1456704066518173,0.0639285643909766,0.017119583781663957,0.0137324482473588
608,1456704066540934,0.06291521681055594,0.016146786373836496,0.015545554047128703
609,1456704066555143,0.05722006921617258,0.01463325916501438,0.016918008590332576
610,1456704066578172,0.04877245588351152,0.012723153678429171,0.01756191665089156
611,1456704066601136,0.04041678558502521,0.010871016525847639,0.017462909441599964
612,1456704066614945,0.03524501975913371,0.009756847214685803,0.016981052269441414
613,1456704066638038,0.03574288993821054,0.010086435985891106,0.016762311460144008
614,1456704066660545,0.04299529841412902,0.012351270906725094,0.01746608326571537
615,1456704066675258,0.05623623899116065,0.01663910063739221,0.019452845557609743
616,1456704066697260,0.07294383955306544,0.02256172344911508,0.0226272493186156
617,1456704066721260,0.08951187646992637,0.029316448051907393,0.026552047962683848
618,1456704066742865,0.10234402324453214,0.035852307791143505,0.030793286927572303
619,1456704066757071,0.10905306037451248,0.04109212103095293,0.035332890779779885
620,1456704066780067,0.10933484227062533,0.04416144202194903,0.0408395346614639
621,1456704066803133,0.10510101504619689,0.04457405880120626,0.0485958951466452
622,1456704066818094,0.09968964592524,0.042318347870834105,0.05996611922606602
623,1456704066839865,0.09641963909347877,0.037813083876629204,0.07554272732420693
624,1456704066863378,0.09717810824482738,0.031774997779939106,0.0944453964450722
625,1456704066877639,0.10178256070537635,0.02510321859958805,0.11431878476514473
626,1456704066899615,0.1084388708161819,0.01884912049872436,0.13221803972198276
627,1456704066922599,0.11500069249263521,0.01422362986654442,0.14603825615636637
628,1456704066938105,0.12030242775352773,0.012524738796400207,0.15580782379102456
629,1456704066959962,0.12479718358213827,0.014917106883236735,0.16413325800561498
630,1456704066983999,0.1301176072248789,0.022103245350073242,0.17530672046778184
631,1456704066997633,0.13783781332740785,0.0339997940492168,0.1930989395683667
632,1456704067019967,0.14827360563771175,0.04954378713400982,0.21805473829158695
633,1456704067042977,0.16017403689267218,0.06673090246832646,0.24580808277765864
634,1456704067057521,0.17147957214574902,0.08295164669758794,0.26781199621919116
635,1456704067079485,0.18040174018352423,0.0955980457748717,0.2745926846524732
636,1456704067102648,0.185792258282874,0.10273353308834816,0.2599678928251434
637,1456704067117749,0.18657068020272752,0.10350283114676544,0.22400979639554666
638,1456704067139743,0.18114634981855549,0.09811442737163235,0.17339243804013468
639,1456704067162715,0.16794335082758421,0.08755655201898047,0.11925254265177851
640,1456704067178018,0.14694311762253423,0.0733404189802922,0.07366632311347829
641,1456704067199980,0.12087421560567028,0.05736696959918355,0.04602857225479766
642,1456704067222753,0.0947618762250844,0.04176621348641241,0.04040072709406232
643,1456704067237752,0.07388913619563248,0.028554543694090866,0.054550036044081644
644,1456704067259740,0.061438111988720005,0.019158429914541496,0.08092106577746062
645,1456704067282777,0.05721388004380147,0.014027137897099785,0.1091849524738561
646,1456704067297742,0.05807480593332192,0.012554728153803247,0.12949792643080438
647,1456704067319744,0.05968520377569123,0.013377547472100303,0.1353809682859247
648,1456704067343029,0.05855490419963646,0.014922425472590352,0.1252962006628879
649,1456704067358055,0.053344670687194846,0.015964609038486073,0.10249027885250962
650,1456704067379804,0.044992411020293235,0.015967240744802786,0.07331848452308795
651,1456704067403024,0.035884705946483145,0.015092925182267042,0.04480238029035438
652,1456704067419052,0.02864444770669563,0.01393016696119286,0.022391007906488413
653,1456704067439814,0.025077989432874224,0.01309285572082874,0.008699830880706482
654,1456704067463021,0.02561165735522307,0.012887792939119413,0.0034888154930840685
655,1456704067478068,0.02931224799236728,0.013193716490507636,0.004579403009525153
656,1456704067500111,0.034391601922794064,0.013582497942891446,0.009094918367474832
657,1456704067523108,0.03894976133697415,0.013594582986083497,0.014465444520535685
658,1456704067537817,0.04164104540171564,0.013011112419440331,0.018944010255389762
659,1456704067559328,0.04201202399109775,0.011976694360510564,0.021687913595307425
660,1456704067582334,0.040449882794191816,0.010916011736979186,0.022597706396046646
661,1456704067597369,0.037860741333529194,0.010304870530429078,0.02207569942099202
662,1456704067619527,0.035257755225133205,0.01042999688972858,0.020772372303196517
663,1456704067642751,0.03341063619747513,0.011263405613459562,0.01934358844427864
664,1456704067657047,0.032663095547759737,0.012504815414134958,0.018270841322935244
665,1456704067679141,0.03295310650298198,0.013755556723680057,0.01781928490066169
666,1456704067703047,0.0339653679842022,0.014723957770229149,0.018137208359069835
667,1456704067718062,0.03529073331020616,0.015355384558221831,0.019379347393023556
668,1456704067740277,0.036525512150298374,0.015829670316379208,0.021709420056017035
669,1456704067762465,0.037335366063064666,0.016439643662009815,0.025162679730608106
670,1456704067777548,0.03752997631247823,0.017417335206148802,0.02950121107328648
671,1456704067799506,0.037160210274405726,0.018792718879620075,0.03420449596247681
672,1456704067830525,0.036611690339520865,0.020352482828246008,0.03859962886597209
673,1456704067837516,0.036620813624546465,0.021719319159287154,0.042013439462441536
674,1456704067859595,0.03810299805307714,0.022516314297750226,0.04385786742556559
675,1456704067882447,0.041748735529808234,0.02254212966605979,0.043683916266580164
676,1456704067897316,0.04752499116607505,0.0218741989731825,0.04128601680178753
677,1456704067919600,0.05437755447120929,0.020844466095792658,0.03684600177426478
678,1456704067942825,0.060401344161283406,0.019893173602852872,0.03100033552838626
679,1456704067957669,0.06350428915440565,0.019374600390998743,0.02473214472997849
680,1456704067979339,0.062279020974495114,0.019418688431674307,0.01910751139695897
681,1456704068002346,0.056634770824457975,0.019916932729787572,0.014972463562199554
682,1456704068025340,0.04785758589927139,0.020622010259641714,0.012740447686550214
683,1456704068039858,0.038079794586860796,0.021285655839645135,0.012349971113350641
684,1456704068062438,0.02943642916276729,0.021750591783321047,0.013391105040973945
685,1456704068085642,0.023305978385074033,0.021955808959756077,0.015317652248388977
686,1456704068099588,0.019952622527758895,0.02187452459468639,0.01762638993651672
687,1456704068122667,0.01868245750359829,0.021445051859333854,0.019925059906991675
688,1456704068145626,0.01840444106440627,0.02055741467670372,0.02189814841974671
689,1456704068159884,0.01833426474949024,0.019124039481922914,0.02325472554890069
690,1456704068182876,0.01853207363767555,0.017211605159631674,0.023758035854748494
691,1456704068205907,0.020023963989142066,0.015169261471332796,0.023370155057467455
692,1456704068219944,0.024414879659842837,0.01367103940013827,0.022421395796201976
693,1456704068242517,0.03311955619922011,0.013604700800713389,0.021626526884639403
694,1456704068265529,0.04652185218680585,0.01579514837963545,0.021826417998069163
695,1456704068279528,0.06341679870745336,0.02064108425563024,0.023532994287030207
696,1456704068302811,0.0809842090790406,0.027820316092553355,0.02654615723796428
697,1456704068325688,0.09537821558507467,0.0362195572981085,0.02992391283753447
698,1456704068339993,0.10285323086693968,0.04415692168689125,0.03239216494718191
699,1456704068362441,0.10114363353114038,0.049842548917095386,0.033004957004684046
700,1456704068385734,0.09058119660673253,0.051929382916086564,0.03168856417043575
701,1456704068399726,0.07436543565791083,0.0499709216648491,0.029346432253602218
702,1456704068422446,0.05770206489013051,0.044622189464249215,0.027451576768794207
703,1456704068445600,0.04609671335409346,0.03748577557729331,0.027344225521355875
704,1456704068461301,0.04353622300773086,0.030615704309697424,0.029595378084689133
705,1456704068483265,0.05128201062108913,0.025833271145890013,0.03373229112755803
706,1456704068505600,0.06760743103847808,0.02412033281675338,0.038424036877446756
707,1456704068519559,0.08839415202101995,0.0253512365101778,0.04200567609047303
708,1456704068543084,0.10831722151841443,0.0284738840523649,0.043083307982373656
709,1456704068565674,0.12232288313051688,0.03202855617739221,0.04097505704317512
710,1456704068579638,0.1270414459472664,0.03473486365692109,0.035869051245031536
711,1456704068603004,0.1216938567075791,0.035877522869365484,0.02870923045465523
712,1456704068625714,0.1081463356797387,0.035367764487284445,0.020890116761779178
713,1456704068639702,0.09009933410321494,0.03354094983359482,0.013872527713924363
714,1456704068662180,0.0717603016815549,0.03086007487916059,0.008843617038703948
715,1456704068685440,0.05652206445245337,0.027695974854775804,0.006511774096852617
716,1456704068700178,0.0461088676889542,0.024279172742306364,0.007045802385670503
717,1456704068723178,0.040432770276221774,0.02080596780191002,0.010099974546886518
718,1456704068744480,0.03810964183957539,0.017582704247570403,0.014873418503027251
719,1456704068759795,0.03732995775256789,0.015070189704446247,0.020217838720381746
720,1456704068782655,0.036686885510271085,0.013766059221612443,0.02485091118775682
721,1456704068804795,0.03565938347810523,0.01398114572345496,0.027687493526103692
722,1456704068819796,0.03463846346083808,0.015642811498045143,0.02818830078141588
723,1456704068842799,0.03456044079564641,0.01824882481540893,0.026548158175494472
724,1456704068864797,0.036325669544783085,0.02101317649585729,0.023590595717545577
725,1456704068879798,0.04023264798042927,0.02314103455855521,0.020388852858687856
726,1456704068903092,0.04564246827090661,0.024101914596900018,0.01779190528596793
727,1456704068925064,0.05100851092613951,0.02377566857676749,0.01608874464732847
728,1456704068939822,0.05428676615627016,0.022418791941915667,0.014964008426840881
729,1456704068962839,0.05361466400318503,0.020490115213058737,0.013744152298130335
730,1456704068984840,0.04803120052203943,0.01843236902468369,0.01179421082100535
731,1456704069000010,0.03795012827042671,0.016509227632648928,0.008861572033321713
732,1456704069023018,0.025156991931875792,0.014757986811406075,0.005200927724999446
