,timestamp,emg1,emg2,emg3,emg4,emg5,emg6,emg7,emg8
0,1456704054527059,0.01451491816996637,0.04777715024436457,0.011789539485376532,0.03937410885503145,0.05640443954268219,0.011526666640239939,0.006564193826586953,0.0
1,1456704054527059,0.029859816022175405,0.08990145079418524,0.0502361446762853,0.06316763288205192,0.10539998697306577,0.07008657062428929,0.025908375508736366,0.017852599018779877
2,1456704054528039,0.04463134893698146,0.12942377669799746,0.08760667483681982,0.08632033375430127,0.15247660787454978,0.1277764170172682,0.04529581606487886,0.035695265203926844
3,1456704054528039,0.0587471933810241,0.16608291186643107,0.12351731057276634,0.1085676043058088,0.19725472534169983,0.18394421513570763,0.06458183344204801,0.05325437986827017
4,1456704054529019,0.07213500040547419,0.19965902032239685,0.1576129877756864,0.12966642194008376,0.23938589807169075,0.23796781226773028,0.08362699920107713,0.07027239787909383
5,1456704054529019,0.08473401267013415,0.2299789512610742,0.189576099028224,0.14940199661615938,0.2785600523297437,0.2892687556394762,0.10229937339239202,0.08651520383588204
6,1456704054529519,0.09649631326810794,0.25692034905303734,0.21913377067824166,0.16759312972953183,0.31451168716069605,0.3373244729975713,0.12047627083336918,0.10177806276447376
7,1456704054529519,0.10738766123396191,0.28041434282391203,0.24606345054530934,0.18409611249924093,0.3470248195216056,0.38167843565181364,0.13804554414220974,0.11588997042344473
8,1456704054539565,0.11738790192770077,0.3004466703757968,0.2701966395145409,0.19880712654962812,0.3759365151425208,0.42194809868876304,0.15490641437447708,0.12871633257437706
9,1456704054539565,0.12649096580432664,0.3170571924491405,0.29142071051700447,0.2116632024101555,0.4011389571321401,0.457830515207419,0.17096991245255785,0.14016001022590688
10,1456704054547525,0.1347044891772988,0.3303378539615536,0.30967888273455757,0.22264183579276492,0.4225801012356669,0.48910560402444253,0.18615901017552164,0.1501608606396546
11,1456704054547525,0.14204910753308486,0.3404292260985712,0.32496852999484893,0.23175937312170444,0.44026301903614246,0.515637119964478,0.20040851681474475,0.15869397457259315
12,1456704054555525,0.14855748415344577,0.34751580897391965,0.33733806682368134,0.23906828430894483,0.45424404135632296,0.5373714321576438,0.21366479784640743,0.16576684847353007
13,1456704054555525,0.1542731408228049,0.3518203020879519,0.34688266976819637,0.24465346705737867,0.46462981720978364,0.5543342729841864,0.22588534205778313,0.1714157383225966
14,1456704054569567,0.15924914993794867,0.35359707818976466,0.353739081781313,0.2486277761121001,0.47157342250213946,0.566625697157925,0.2370381720922683,0.17570143277090003
15,1456704054569567,0.1635467283232859,0.35312512214704567,0.3580797425102205,0.25112701697172785,0.4752696780901437,0.5744135786047676,0.24710107384154445,0.1787046691991717
16,1456704054580527,0.16723374929181528,0.3507007000426751,0.36010649701021286,0.25230465746191577,0.4759498488950238,0.5779260387564146,0.25606062536243623,0.18052140335167918
17,1456704054580527,0.17038317312993603,0.3466300078233255,0.36004414899595316,0.25232649038323246,0.47387589638566346,0.5774432154536945,0.26391104119708375,0.18125813131228125
18,1456704054584527,0.1730713969574871,0.341222039192301,0.35813412499264263,0.2513654464884385,0.4693344631539429,0.5732887436745112,0.27065289603474985,0.1810274456156917
19,1456704054584527,0.17537654175731782,0.3347819115301186,0.3546284913785608,0.2495967244185686,0.46263078287322157,0.5658212445324717,0.27629182398289986,0.1799439791816403
20,1456704054599563,0.1773767139462828,0.3276048661753363,0.3497845147769951,0.24719337232218305,0.45408271461392163,0.555426027707787,0.2808372951271357,0.17812085502164043
21,1456704054599563,0.1791482847913192,0.31997109532853013,0.34385988532232414,0.2443224197713841,0.4440150824094309,0.542507119756312,0.28430155967412535,0.17566672751481532
22,1456704054607528,0.1807642169389521,0.31214145650391756,0.3371086476830287,0.24114161999233188,0.43275445808119267,0.5274796502805287,0.28669883231818766,0.17268347775955295
23,1456704054607528,0.1822924418954686,0.30435404691498696,0.3297778168252572,0.2377968280103784,0.4206244655943902,0.5107625748694055,0.28804476981113963,0.1692646040749578
24,1456704054645541,0.18379427341080432,0.2968215461157852,0.32210459238331285,0.23442001298867807,0.4079416196905898,0.49277169709310503,0.28835627873576014,0.16549431999125772
25,1456704054645541,0.1853228468560593,0.2897292016680803,0.3143140273149409,0.23112787748448704,0.3950116507090508,0.4739129713657555,0.2876516814800207,0.16144733577395018
26,1456704054653542,0.18692160866742122,0.2832333278278944,0.3066169726109382,0.2280210253133004,0.38212621967111227,0.45457612171691575,0.2859512588120697,0.15718926159402297
27,1456704054653542,0.18862292739924835,0.2774602117946738,0.2992081372526561,0.22518358688332038,0.36955990097010816,0.4351286889114509,0.28327816533720634,0.1527775337213822
28,1456704054654542,0.19044693315498512,0.2725053736434308,0.2922641746363076,0.22268319420937738,0.35756731283210513,0.4159106917137549,0.2796596767496315,0.14826272873376345
29,1456704054654542,0.1924006988270307,0.26843318885624473,0.28594180188055607,0.22057121241334873,0.3463803130295989,0.3972301247538447,0.2751286843953367,0.14369009893943266
30,1456704054655542,0.19447785660205333,0.26527693395138746,0.2803760326022345,0.21888317216460346,0.3362052432548858,0.37935950211777564,0.26972531464626726,0.13910114856410297
31,1456704054655542,0.19665871089466674,0.263039341178795,0.27567863268244286,0.2176393833971753,0.32722027965597567,0.362533599292579,0.2634985215847939,0.13453508748674012
32,1456704054658547,0.1989108791909643,0.2616937434014272,0.2719369036193473,0.21684573124061635,0.31957300681850226,0.3469484638731142,0.25650748128128775,0.1300300441463665
33,1456704054658547,0.2011904698904288,0.2611858619746177,0.2692128867643799,0.21649466747372018,0.3133783708993937,0.3327616771235784,0.2488226131896321,0.12562397216769972
34,1456704054666756,0.20344378318465436,0.26143625599239007,0.2675430756345271,0.2165664227591758,0.30871718821487637,0.3200937641263918,0.24052608297113934,0.12135522777422475
35,1456704054666756,0.20560948643495197,0.262343425559861,0.26693871315666884,0.217030470292121,0.30563538511464794,0.3090305713336838,0.2317117008601656,0.11726282316774833
36,1456704054675543,0.20762116842045525,0.2637875434276851,0.2673867240088983,0.21784726031521046,0.3041441155378024,0.29962636625169087,0.22248420080009715,0.11338638076451782
37,1456704054675543,0.20941012972413517,0.2656347656043509,0.2688512881182946,0.2189702177373577,0.304220847732141,0.2919073822680107,0.21295794531669063,0.10976582839611745
38,1456704054688645,0.2109082383904141,0.2677420338642366,0.2712760087084059,0.22034796131329112,0.30581144739380195,0.2858755385313825,0.20325513675259468,0.1064408840949566
39,1456704054688645,0.21205068449798245,0.26996223518181756,0.27458657637879846,0.2219266699233872,0.30883322451291223,0.2815120993181288,0.19350362803992044,0.10345037854767333
40,1456704054698544,0.21277850207220309,0.27214953879429676,0.2786937848908066,0.223652490531891,0.31317885578485133,0.2787810848866338,0.1838344279391323,0.10083145715395936
41,1456704054698544,0.2130407721537777,0.27416470505011237,0.28349671910828117,0.2254738551377109,0.31872103564800425,0.27763229811288165,0.17437899927401276,0.0986186989408741
42,1456704054703748,0.21279645352146706,0.27588015397920235,0.28888591781223044,0.22734355984441645,0.3253176443967604,0.2780038833380681,0.16526645626162398,0.09684319019274665
43,1456704054703748,0.21201580016484511,0.27718458600884277,0.2947463258285288,0.22922047064449838,0.33281716406340284,0.27982437997948706,0.15662077093051727,0.09553159448499277
44,1456704054719388,0.21068133114290785,0.2779869570261644,0.30095990266537315,0.23107076155557682,0.34106404406140745,0.2830142700840559,0.14855809124734648,0.09470526378296899
45,1456704054719388,0.20878833665086047,0.27821963252531323,0.3074078416583372,0.23286864991034548,0.34990372921292395,0.28748704932615843,0.1411842560921489,0.09437943536965233
46,1456704054727591,0.20634493415562744,0.2778405876049855,0.31397244250169426,0.23459665003184865,0.3591870991305222,0.2931498794878179,0.13459257394388383,0.09456255597558229
47,1456704054727591,0.20337171351709896,0.2768345767164109,0.3205387367569085,0.23624540522976012,0.3687741148466222,0.2999039061030613,0.12886192096332907,0.09525576687077014
48,1456704054736098,0.19990101646654815,0.27521326091940557,0.32699598007461406,0.2378131788589265,0.37853653530920284,0.30764434352336617,0.12405520889189674,0.09645257208789368
49,1456704054736098,0.19597588994784365,0.27301434208123204,0.33323910900584064,0.2393050945070281,0.38835966526947235,0.31626044011016763,0.12021826664548334,0.09813869851450477
50,1456704054749108,0.19164875385876895,0.2702998022406851,0.33917022924541507,0.24073221483074927,0.39814320416246424,0.3256354407515548,0.11737916758679488,0.10029214478500433
51,1456704054749108,0.1869798404591928,0.2671533783153483,0.34470016207743953,0.24211053732590376,0.4078013402241185,0.33564666232333557,0.11554801961906362,0.10288340943955178
52,1456704054759100,0.18203548403600917,0.26367742197821015,0.3497500301248569,0.24345996682594895,0.41726226249028314,0.3461657855169026,0.11471722114124279,0.10587588933851894
53,1456704054759100,0.17688634784097892,0.25998930266469306,0.3542528196425329,0.24480330361796923,0.42646726679313174,0.35705943994257433,0.11486217157187341,0.10922644369868098
54,1456704054765111,0.17160566250344503,0.25621750674763016,0.358154825154679,0.24616526512354509,0.43536962750742786,0.36819011977489224,0.11594240646953236,0.11288612017024212
55,1456704054765111,0.16626752128056846,0.2524975758005855,0.36141687159796576,0.24757154175424045,0.44393338858780734,0.3794174194211567,0.11790310381311421,0.11680103156065971
56,1456704054788392,0.16094524741749794,0.24896802033393856,0.3640152206471167,0.2490478802148972,0.4521321828374295,0.39059953174493306,0.12067688587489915,0.12091335698604852
57,1456704054788392,0.1557098327191584,0.2457663358819124,0.36594209683871654,0.25061919338425165,0.45994812193935425,0.40159491791041896,0.12418582885547201,0.12516242788244195
58,1456704054789364,0.15062844954766577,0.24302522244177477,0.367205804900119,0.25230871175473285,0.46737073972905746,0.41226404954952833,0.1283435944609933,0.12948585568692186
59,1456704054789364,0.1457630532154443,0.24086906604762695,0.36783043482696703,0.2541372099720921,0.47439594890424336,0.4224711459796982,0.13305760981643955,0.1338206651536004
60,1456704054796102,0.1411691062561802,0.23941069756978814,0.3678551539737729,0.2561223532622246,0.4810249903544599,0.4320858748663715,0.13823123417753672,0.13810440833154558
61,1456704054796102,0.13689446532052213,0.23874841613048062,0.36733307382680197,0.2582782026332614,0.487263388093904,0.4409850326130102,0.1437658562116428,0.142276241259427
62,1456704054809329,0.13297847629167,0.238963263986772,0.36632966931042393,0.2606148922597053,0.49311994690207633,0.4490542461258977,0.14956286906674907,0.14627794587253584
63,1456704054809329,0.12945132217626504,0.24011656388510114,0.3649207285614812,0.2631384558307131,0.4986058392487206,0.45618973034153826,0.15552548155167326,0.15005487624749622
64,1456704054819356,0.12633365766600008,0.24224776217770658,0.36318982888062173,0.26585074502033273,0.5037338237191685,0.4623001030949488,0.16156034166045558,0.15355680618010775
65,1456704054819356,0.12363654409162156,0.24537264648328128,0.36122538104425184,0.26874936528745474,0.5085176177584588,0.46730821417431256,0.1675789618517858,0.15673865695638603
66,1456704054824346,0.12136167402592847,0.24948202300317168,0.3591173549428982,0.27182755996924024,0.512971416883901,0.47115290452836256,0.1734989383261792,0.15956108638985633
67,1456704054824346,0.1195018538903231,0.2545409463413764,0.35695386698339654,0.2750740030068628,0.5171095149295633,0.4737905874260002,0.17924495606887256,0.1619909192059881
68,1456704054838621,0.11804170367736677,0.2604885910233859,0.35481784407904254,0.27847250055861483,0.5209459313477106,0.47519653255762406,0.18474957454691057,0.16400140257846968
69,1456704054838621,0.11695853801238881,0.26723884019096666,0.3527839718938949,0.28200163290948455,0.524493895079741,0.475365725608437,0.18995379431022652,0.16557229023164494
70,1456704054846622,0.11622340445109164,0.27468164819737756,0.3509160992020349,0.28563438366855665,0.5277650071277187,0.4743131815449908,0.1948074100102712,0.16668978704881768
71,1456704054846622,0.11580226126160408,0.282685209017869,0.34926522127435383,0.2893378133419855,0.5307679622047732,0.47207363809498143,0.19926916110829754,0.16734640236386167
72,1456704054855621,0.11565727416242005,0.291098924375274,0.3478681088304535,0.29307284684870527,0.5335068609389121,0.4687006451442587,0.20330669599428372,0.16754075617537606
73,1456704054855621,0.11574820483190977,0.29975711023005414,0.3467465890186142,0.2967942517221511,0.5359793103928114,0.46426515349246117,0.2068963646033164,0.16727737060795383
74,1456704054868622,0.11603385849270208,0.3084833138302674,0.34590743131274243,0.30045087273991156,0.5381746004101438,0.458853751812814,0.2100228491436448,0.16656647032400812
75,1456704054868622,0.11647355310882489,0.3170950530291127,0.3453427523667879,0.30398615564069636,0.5400722416722737,0.45256669775321967,0.2126786363910988,0.16542380886571056
76,1456704054878623,0.11702856545616182,0.3254087556053901,0.3450308296130487,0.3073389460584207,0.5416411062574411,0.44551585871217136,0.21486333355828152,0.1638705287939122
77,1456704054878623,0.11766349836341755,0.33324467961367243,0.344937204137087,0.3104445104088206,0.5428393548418501,0.43782264088190526,0.21658283806361303,0.16193305252018866
78,1456704054883623,0.11834750271620675,0.34043163184586767,0.3450159645150065,0.3132357156144451,0.5436152605355901,0.4296159422983289,0.217848387929584,0.15964298852647107
79,1456704054883623,0.11905528408841136,0.34681135290855264,0.34521113746915283,0.3156443268897134,0.5439089435001545,0.42103010649897954,0.21867553254684308,0.1570370232068817
80,1456704054898624,0.11976783115262876,0.352242479163202,0.3454581615637048,0.3176024148348734,0.5436549300652718,0.41220278860115156,0.21908306360068572,0.15415675508629018
81,1456704054898624,0.1204728215117591,0.3566040078149648,0.34568546939320893,0.31904387905686926,0.542785363567684,0.4032726109892951,0.21909193880258404,0.15104842208366684
82,1456704054906664,0.12116468810226458,0.3597981931387858,0.34581623260855365,0.3199060857418284,0.5412336265618011,0.3943765098586892,0.2187242328618359,0.1477624763154345
83,1456704054906664,0.12184435983208436,0.3617528177822807,0.3457703285155832,0.3201315874023319,0.538938084298693,0.38564675479544136,0.21800216829928273,0.14435297498090172
84,1456704054916134,0.12251871483400767,0.36242282570407225,0.34546657733841263,0.31966986156389066,0.53584563250798,0.37720773098007515,0.21694730110405064,0.14087678107280593
85,1456704054916134,0.1231997983921997,0.3617913534667022,0.34482527915103434,0.31847899285601755,0.5319147449084197,0.3691726632544372,0.21557994256881874,0.1373925986535736
86,1456704054930131,0.12390386098013349,0.35987022329518825,0.34377104003691483,0.31652723858697274,0.5271177833244303,0.36164050252741115,0.21391888056722033,0.13395989193299612
87,1456704054930131,0.12465026845509238,0.35669995057995896,0.3422358173917848,0.31379444412714025,0.521442446454301,0.3546931907774399,0.21198142946387633,0.13063774863741365
88,1456704054938636,0.12546033059682327,0.3523492811684046,0.3401620520209216,0.31027328402784365,0.5148923575580687,0.34839349520170776,0.20978380083272996,0.12748374926476666
89,1456704054938636,0.12635608984658384,0.34691423223629664,0.33750570691995185,0.3059702900895571,0.507486896687189,0.34278357182024566,0.2073417544843383,0.12455289767753802
90,1456704054952637,0.12735911063897037,0.3405165839275971,0.3342390003658079,0.3009066046659444,0.4992604576844016,0.33788438228078416,0.2046714640626024,0.12189665318214993
91,1456704054952637,0.12848930985903667,0.33330176508200926,0.3303526063144382,0.29511838889298403,0.4902613491215259,0.33369603485657984,0.2017905179747741,0.1195620805858547
92,1456704054958637,0.12976386945656385,0.3254360919157675,0.3258571177723543,0.2886568354364578,0.4805505606112477,0.3301990509442983,0.1987189767932418,0.11759111212617436
93,1456704054958637,0.1311962724570406,0.31710334908609655,0.3207836387461976,0.28158777676580327,0.47020058682668986,0.3273564836041964,0.1954804142586121,0.11601990657342523
94,1456704054966672,0.1327955020348873,0.30850074640245206,0.31518345744496684,0.2739909136396553,0.45929444848036977,0.32511674921537437,0.19210286618750966,0.11487830055398703
95,1456704054966672,0.1345654374117791,0.29983433278179145,0.3091268165305899,0.2659586924173723,0.4479249813427017,0.32341698762718385,0.18861959499076977,0.11418936421785711
96,1456704054975640,0.13650446818863432,0.2913139875277298,0.3027008349756773,0.257594849079022,0.4361943947340314,0.322186745526283,0.1850695594812502,0.11396908101967029
97,1456704054975640,0.13860533221737256,0.28314813216768187,0.2960066833301516,0.24901264687410654,0.4242140455746901,0.32135177725487746,0.1814974826559847,0.11422616360229332
98,1456704054988638,0.1408551678982872,0.2755383174018103,0.2891561816220352,0.2403328709544197,0.4121043432659944,0.32083776348831994,0.17795344831804907,0.1149620015050405
99,1456704054988638,0.1432357649110628,0.26867384252583487,0.2822680474801981,0.23168167816630447,0.39999469204192384,0.32057375543820704,0.17449201902697828,0.11617072078680121
100,1456704054998639,0.14572399472640385,0.26272656376542064,0.27546403799948704,0.22318840625739095,0.38802337736723264,0.3204951719774559,0.17117092417083188,0.11783932706179406
101,1456704054998639,0.14829239673846428,0.2578460515714218,0.26886520018805515,0.21498342844139337,0.376337299081322,0.32054621889735746,0.16804940250568984,0.11994790749834791
102,1456704055012640,0.15090988605882136,0.25415526733831245,0.26258839308133036,0.20719611590705223,0.3650914428059012,0.3206816500204656,0.16518630431800274,0.12246988447186362
103,1456704055012640,0.15354254114830973,0.25174693608461723,0.2567431901383225,0.199952948924861,0.3544479630465358,0.3208678241269599,0.16263807163762892,0.1253723331117562
104,1456704055019394,0.15615443237187018,0.25068077866971233,0.25142922353434943,0.19337579243040498,0.34457473564679675,0.32108302506711417,0.16045671985496382,0.1286163837164092
105,1456704055019394,0.15870847021547102,0.25098173272981694,0.2467339948668581,0.1875803268802167,0.33564325245081933,0.32131702876144763,0.15868794119930824,0.13215772713997836
106,1456704055027426,0.1611672759896376,0.252639245958427,0.24273114766594198,0.18267460883767397,0.32782579941122786,0.321569941563389,0.15736944344513776,0.13594723676075576
107,1456704055027426,0.1634940905868907,0.25560767895556374,0.23947917603230992,0.1787577294730674,0.3212919567065522,0.32185039114009395,0.15652962563591444,0.13993172008972007
108,1456704055035651,0.16565372738663287,0.2598078105105905,0.2370205348876854,0.1759185338431124,0.31620453363178136,0.32217319893699037,0.15618667373880296,0.14405481172404122
109,1456704055035651,0.1676135505912659,0.2651293947521429,0.2353811214812625,0.17423435231034412,0.31271508003345777,0.3225566922445374,0.15634813339239267,0.14825801068733774
110,1456704055056652,0.16934443628736348,0.27143467905998475,0.23457011023344554,0.17376968237103463,0.3109591196759291,0.32301982857503647,0.1570109861454304,0.15248184921259988
111,1456704055056652,0.17082166163926307,0.2785627595846394,0.23458014001107272,0.17457475781826923,0.3110512532117747,0.32357930688705555,0.15816222021833348,0.15666716182365492
112,1456704055065653,0.1720256708666362,0.28633462904975915,0.2353878699644146,0.17668396436711115,0.31308028558396717,0.32424682690736695,0.15977984936298484,0.16075640717187833
113,1456704055065653,0.1729426814400769,0.29455875182667124,0.23695492525257802,0.18011410901555208,0.3171045448388475,0.32502663258139836,0.16183430071613417,0.1646949802241801
114,1456704055072653,0.1735651088724295,0.3030369762533707,0.2392292358263004,0.18486261467988926,0.32314757834477786,0.32591344520945953,0.16429007124607029,0.16843243792173607
115,1456704055072653,0.17389179219479672,0.31157056666280747,0.24214673257661867,0.19090577073162393,0.33119443066512555,0.32689086204876733,0.16710754396586144,0.171923551412892
116,1456704055078654,0.17392799957227845,0.31996611925549256,0.2456333207788235,0.1981972013647154,0.34118870918045624,0.3279302750291696,0.17024485583789775,0.17512910219790273
117,1456704055078654,0.1736852016549566,0.32804112504698085,0.24960701507806923,0.2066667112066614,0.35303062763862647,0.3289903600915079,0.17365971346395137,0.17801636622437958
118,1456704055086654,0.1731806225995874,0.33562895594214515,0.25398010058333004,0.2162196463199234,0.36657619879441633,0.33001719695524606,0.17731105746238487,0.18055927537810737
119,1456704055086654,0.17243659779904788,0.3425830674838928,0.2586611873566976,0.22673688715732315,0.38163772796754986,0.3309450825983861,0.1811604844872237,0.1827382908181039
120,1456704055095654,0.17147976882176189,0.34878023677913345,0.2635570593992343,0.23807557174472632,0.3979857218252282,0.3316980828904132,0.18517334924274567,0.1845400467865068
121,1456704055095654,0.17034013703881776,0.3541227036782276,0.26857428155737145,0.25007062329135166,0.4153522602791043,0.3321923271683577,0.18931948520285868,0.18595682355321844
122,1456704055108655,0.16904999481464394,0.35853916734153446,0.27362059047889686,0.2625371199936298,0.4334358007226885,0.3323389993852357,0.19357350281994376,0.18698589749786457
123,1456704055108655,0.16764276145359053,0.36198469288322865,0.27860612430148346,0.2752734984701487,0.451907318785448,0.3320479208340389,0.19791465376730327,0.18762881170815823
124,1456704055119367,0.16615176217479777,0.364439671310182,0.28344453708532213,0.2880655302184155,0.4704176435785395,0.33123155874770743,0.20232628676178974,0.18789062017741498
125,1456704055119367,0.16460899911042146,0.3659080281444658,0.28805402586580026,0.3006909530562907,0.4886058022041035,0.32980924745347945,0.20679494965640557,0.1877791751813559
126,1456704055133402,0.16304397804266377,0.36641489236957137,0.29235828998712393,0.312924580064414,0.5061081373577173,0.3277113870854795,0.21130920369956901,0.18730453244970072
127,1456704055133402,0.16148267001603409,0.36600392742346805,0.2962874381695984,0.3245436618269489,0.52256791130297,0.3248833857048841,0.215858217273068,0.18647853233718106
128,1456704055139368,0.15994669053904428,0.36473449430781807,0.29977884833821905,0.33533326213812886,0.5376450729726847,0.3212891273411159,0.22043021443580496,0.18531458553990784
129,1456704055139368,0.15845276462939112,0.3626787678884842,0.30277797123134925,0.34509142583205965,0.5510258471457344,0.31691378516289154,0.22501087572826126,0.18382766297204972
130,1456704055147167,0.1570125195439929,0.35991887741146394,0.3052390617710504,0.3536339559133679,0.5624318063143193,0.31176585350180774,0.229581818534429,0.18203446509020246
131,1456704055147167,0.15563261700604067,0.3565441147184146,0.30712582727128585,0.3607986637553385,0.5716281112787238,0.30587832506334994,0.2341193069349941,0.17995372204245064
132,1456704055156418,0.15431520597762297,0.3526482574368241,0.3084119888987515,0.36644900612102177,0.5784306500905115,0.2993089746891308,0.23859334116231942,0.17760655336005207
133,1456704055156418,0.1530586468130142,0.3483270709964374,0.30908174568386876,0.3704770638010562,0.5827118396612453,0.29213973091443324,0.2429672485234585,0.175016803335151
134,1456704055169169,0.15185843422399017,0.3436760553881291,0.309130108994631,0.37280583345418306,0.5844048604897308,0.2844751349062604,0.24719784940050693,0.1722112737186858
135,1456704055169169,0.15070823767009062,0.33878848187161004,0.30856306050533605,0.3733908045022177,0.5835060992883871,0.2764399190061938,0.25123621892080883,0.16921979850565205
136,1456704055179169,0.1496009817223396,0.3337537321196059,0.3073974911945203,0.37222080407867214,0.5800756287447354,0.26817578858655206,0.25502901644704057,0.16607513632138263
137,1456704055179169,0.1485298948115931,0.32865591820997436,0.3056608886212746,0.369318122867168,0.5742356671628567,0.2598375464520446,0.258520311510305,0.1628126805930065
138,1456704055193399,0.14748945851027837,0.3235727335759081,0.3033907355018808,0.3647379573757442,0.566167081033835,0.2515887388197958,0.2616537947567456,0.15947000007284592
139,1456704055193399,0.14647619879060245,0.31857447462367044,0.3006335735910195,0.3585671967488392,0.5561040684105631,0.24359701904873532,0.2643752280006953,0.15608622813679288
140,1456704055199364,0.1454892787370008,0.31372319016458694,0.29744370378098706,0.35092255401396555,0.5443271919982978,0.23602942508729205,0.26663496221160865,0.15270132744216025
141,1456704055199364,0.14453086835771434,0.30907195330609244,0.29388154772857417,0.3419480192458065,0.5311549576197775,0.22904775470412989,0.2683903390768487,0.1493552674174103
142,1456704055207365,0.14360627255180525,0.3046642839930748,0.29001176327843825,0.3318116136747776,0.5169341857162684,0.22280419902564613,0.26960779485503183,0.14608715826569618
143,1456704055207365,0.14272380023830125,0.30053375737492755,0.28590124901389796,0.3207014531246604,0.5020294963095449,0.21743736068234312,0.27026451060791096,0.14293438294445587
144,1456704055216366,0.1418943680559446,0.29670381259009754,0.28161717482970205,0.3088211811450377,0.4868122928242345,0.2130687454606424,0.27034950219713266,0.1399317629712394
145,1456704055216366,0.14113085042410764,0.29318775565531047,0.2772251461323107,0.29638489711530974,0.4716496615510593,0.20979978456202766,0.2698641073983563,0.13711079022956751
146,1456704055229178,0.14044720695404786,0.28998895705945943,0.2727875763224709,0.2836117669500122,0.4568935957977639,0.2077094232802328,0.26882188996751544,0.13449895400920717
147,1456704055229178,0.13985743713574528,0.2871012697444239,0.2683623261452003,0.2707205441951047,0.4428709187964057,0.20685230236268679,0.267248028895843,0.13211918748570356
148,1456704055239184,0.13937443133294156,0.28450969954946415,0.26400166801020636,0.2579242379951995,0.42987423504607825,0.20725755641363186,0.2651782903632941,0.1299894519050495
149,1456704055239184,0.139008800882958,0.28219133480380765,0.25975163057216283,0.24542514979696883,0.41815419875448406,0.2089282499340664,0.2626576908505954,0.12812247293857268
150,1456704055253364,0.13876777396922094,0.28011650844742386,0.2556517581331194,0.23341047272498555,0.40791334988414046,0.21184145796848133,0.2597389588597665,0.1265256429001947
151,1456704055253364,0.13865424061463674,0.27825014853381064,0.25173528240199006,0.22204860617429403,0.399301721649689,0.21594897511693745,0.25648089736401863,0.12520110275782342
152,1456704055259185,0.13866602356056187,0.276553270807257,0.24802966456970876,0.21148628234875688,0.3924143606771261,0.22117861349593618,0.25294673972260473,0.12414601517954116
153,1456704055259185,0.13879544086000098,0.27498456939042665,0.2445574332467681,0.2018465391446148,0.38729082772129225,0.22743603902856288,0.24920257394404002,0.12335303049475152
154,1456704055267185,0.13902920713241906,0.27350206442901764,0.24133721870511482,0.19322751758917942,0.38391667088197723,0.23460709848117503,0.24531588742906546,0.12281093167479026
155,1456704055267185,0.13934869406078151,0.2720647689393199,0.23838486270097423,0.18570202208077558,0.3822267851008102,0.24256059764546375,0.24135426758855988,0.12250542781414704
156,1456704055282185,0.13973054375707272,0.27063433507481316,0.23571446646756866,0.17931776171576103,0.3821104885192368,0.2511514946277843,0.23738428600358535,0.12242005341716522
157,1456704055282185,0.140147607717717,0.2691766243276838,0.2333392353424655,0.17409818622674342,0.3834180573822866,0.2602244680923363,0.23347058386942857,0.12253712163648503
158,1456704055289186,0.140570166941974,0.26766312229348294,0.23127199859942554,0.1700438291529896,0.3859683710771972,0.26961780601485513,0.22967515140753275,0.12283866963027423
159,1456704055289186,0.14096736696102935,0.2660721085460351,0.2295253332868608,0.16713406498271813,0.3895572447690561,0.27916753285263873,0.22605675512498655,0.12330732772360045
160,1456704055299186,0.14130877260844313,0.26438951336944577,0.22811129365716168,0.16532917858741455,0.3939659979737198,0.2887116558494275,0.22267043051926774,0.12392705083455385
161,1456704055299186,0.1415659219032919,0.2626094358113018,0.22704082220850377,0.16457264567094682,0.3989698450410381,0.2980943806457706,0.21956694091216689,0.12468367111712611
162,1456704055313188,0.1417137540036989,0.2607343322211209,0.22632297130516144,0.16479353877646236,0.40434579214338157,0.30717014324810316,0.21679211383314292,0.12556525466729734
163,1456704055313188,0.1417318112048857,0.2587748976430982,0.22596408312365684,0.16590899663684816,0.40987984842427466,0.315807334164578,0.21438600689386314,0.12656226469515452
164,1456704055319195,0.1416051580105457,0.25674967176907615,0.22596706083270346,0.16782671058707482,0.41537345432465095,0.32389162769393975,0.21238191764995715,0.12766754737958547
165,1456704055319195,0.14132500234529258,0.2546844229791671,0.2263308245963043,0.17044738598679626,0.42064905963406807,0.33132884765602044,0.210805311167,0.1288761638300537
166,1456704055327195,0.14088903645449075,0.2526113846883135,0.2270499952052272,0.173667139220291,0.42555475194219894,0.3380473022559153,0.20967276751107738,0.13018509350058538
167,1456704055327195,0.1403015367638913,0.2505684156275017,0.22811479945858523,0.17737980221983868,0.4299677930910479,0.3439995280742562,0.20899104705991334,0.13159283677557537
168,1456704055342201,0.13957326889549113,0.24859813189080945,0.22951115524316906,0.18147912437767297,0.43379693091245675,0.3491634047490493,0.20875635380065474,0.13309895026639249
169,1456704055342201,0.13872123503992706,0.24674703332693093,0.23122087449919068,0.1858608756351674,0.43698343825035285,0.35354262228674543,0.20895385909972417,0.1347035534482978
170,1456704055349201,0.1377682844462726,0.2450646312545826,0.23322191885138427,0.19042485719452049,0.43950094169846915,0.35716648448622385,0.2095575300315367,0.13640684370371176
171,1456704055349201,0.13674259402420005,0.24360257474610633,0.23548865641280617,0.19507681816142197,0.44135416894015006,0.36008901600962184,0.21053028561016163,0.13820864618266093
172,1456704055359201,0.1356770186692878,0.24241376101093795,0.23799209620633147,0.19973026419686324,0.44257675767638016,0.3623873254154973,0.2118244855428549,0.14010800707457727
173,1456704055359201,0.13460830945727448,0.24155139863215092,0.2407001056096638,0.2043081361003272,0.4432282784027675,0.3641591781462204,0.21338274420151254,0.14210282108609995
174,1456704055373202,0.13357620075371027,0.24106797634619728,0.24357763193779292,0.20874433403320927,0.4433906524463096,0.36551975902104994,0.2151390577045172,0.144189477226226
175,1456704055373202,0.13262237185033587,0.24101408838862515,0.2465869508977679,0.21298506030376974,0.4431641703396699,0.36659765857992166,0.21702023052702915,0.14636251773458342
176,1456704055379203,0.13178929331271758,0.2414370915708976,0.2496879618148964,0.2169899438095875,0.44266330579092966,0.367530198614512,0.2189475847725335,0.14861432626107496
177,1456704055379203,0.13111897416764218,0.2423796138221658,0.252838549696882,0.22073289361927262,0.44201248097953305,0.36845829341409975,0.22083892773683944,0.15093487828572097
178,1456704055387203,0.13065163494791884,0.24387797450257565,0.2559950396402285,0.22420261376379527,0.4413418897154461,0.36952108876558387,0.22261074365676417,0.15331159024043048
179,1456704055387203,0.13042434236030545,0.2459605911286119,0.2591127770004658,0.22740269908579375,0.4407834372743236,0.3708506160545755,0.224180565268054,0.1557292955877548
180,1456704055402204,0.1304696514859892,0.24864643797287642,0.26214686627016476,0.23035122240602643,0.4404668098552458,0.37256665937837213,0.22546946761839268,0.15817036174009988
181,1456704055402204,0.13081430944075928,0.2519436089564993,0.26505308141007716,0.2330797218861615,0.44051564759323814,0.3747719851863744,0.22640460848170976,0.16061494499309018
182,1456704055409205,0.13147807982605275,0.25584803172881454,0.26778892393353654,0.23563152070529805,0.44104377869322364,0.3775480461296531,0.2269217183882981,0.16304136513506914
183,1456704055409205,0.1324727492582869,0.2603423792217499,0.2703147706526869,0.23805937017785006,0.44215149048479874,0.3809512592441848,0.2269674194332864,0.16542657045258669
184,1456704055418760,0.1338013738312512,0.26539522461413956,0.27259503752744446,0.24042248896637042,0.4439218590086242,0.38500998112425916,0.22650122682931237,0.1677466571967256
185,1456704055418760,0.1354578122342329,0.2709604857456598,0.2745992921341275,0.24278314582384192,0.4464172105676744,0.38972233937715944,0.22549707452060064,0.16997740315306276
186,1456704055433232,0.1374265729334591,0.27697720823355015,0.276303265030148,0.24520298159295165,0.44967582785398996,0.39505508949618073,0.2239442315663238,0.17209477533994863
187,1456704055433232,0.1396829789495296,0.28336974330432624,0.2776897292692481,0.24773928597735304,0.4537090365624287,0.40094362858586213,0.22184754832882408,0.1740753824228983
188,1456704055439233,0.1421936321769525,0.29004838294300594,0.27874923447597794,0.25044144059819745,0.4584988256943332,0.40729323039433535,0.21922706142239817,0.1758968620222995
189,1456704055439233,0.14491714534516276,0.29691051485043696,0.27948069691472566,0.2533477165253132,0.46399617612064015,0.41398150379122833,0.21611705138591103,0.17753821268503944
190,1456704055447233,0.1478051037534981,0.30384234597427284,0.2798918551228589,0.256482578487477,0.47012029526472526,0.4208620365345089,0.21256467505901644,0.17898009250032557
191,1456704055447233,0.15080321648019498,0.3107212117717959,0.2799995966464228,0.2598546089152913,0.47675896305426435,0.42776915428761636,0.2086283028715776,0.1802051106016041
192,1456704055462242,0.1538526143394546,0.31741843999788927,0.27983014729503436,0.2634551311880811,0.48377016180299587,0.43452367200597375,0.2043756899520509,0.18119813590374104
193,1456704055462242,0.15689125156354536,0.3238026794358813,0.2794190977110308,0.2672575853663806,0.4909850789182558,0.4409394291755556,0.19988209249481603,0.18194664084397408
194,1456704055469234,0.15985537495430482,0.32974354644482334,0.27881122873827835,0.2712176867603885,0.4982124476654675,0.4468303037583348,0.19522840516309867,0.18244108929542802
195,1456704055469234,0.16268103670814313,0.3351154000574762,0.2780600887881429,0.2752743712562949,0.5052440577364173,0.45201733236622677,0.19049935377349048,0.1826753682112249
196,1456704055479234,0.16530563553366062,0.33980104502468983,0.27722727420942034,0.2793514998930517,0.5118611625754984,0.45633555413049026,0.18578174368111655,0.1826472469290722
197,1456704055479234,0.16766946748720282,0.343695186167708,0.27638136978675126,0.2833602644407073,0.5178414667342299,0.4596402353963072,0.1811627422629602,0.1823588205400591
198,1456704055492235,0.16971725626094739,0.34670750118415056,0.27559651888751163,0.2872022116647054,0.5229663951523881,0.46181218874362717,0.1767281635075256,0.1818168595186718
199,1456704055492235,0.1713996201359601,0.348765237665039,0.27495060452158926,0.29077278444899374,0.5270283852894575,0.46276195303254974,0.1725607256324997,0.18103296612966135
200,1456704055500236,0.17267442130808683,0.3498152597425232,0.27452303538884376,0.29396525591272293,0.5298379549132441,0.4624326589013996,0.16873826663670174,0.18002344789145538
201,1456704055500236,0.17350793081918572,0.3498254782109774,0.27439215929149285,0.29667490696646065,0.5312302857569333,0.46080147492112533,0.16533191863729757,0.17880885982281883
202,1456704055507236,0.17387573400709322,0.34878561657571383,0.2746323761239305,0.2988032747288103,0.5310710773449372,0.45787961051428216,0.16240425476743495,0.17741322106970178
203,1456704055507236,0.17376331080113613,0.34670730686265155,0.2753110769474506,0.30026228584665415,0.529261501534309,0.4537109436363285,0.1600074377162396,0.17586295767370147
204,1456704055522242,0.1731662602832207,0.34362356077662765,0.27648556941812746,0.3009780904081532,0.525742197608448,0.4483694399456226,0.15818142317089487,0.17418565579897793
205,1456704055522242,0.17209018913585797,0.3395876988750034,0.2782001524096096,0.3008944313321246,0.5204963205107581,0.441955608531792,0.15695230335121976,0.17240873192147635
206,1456704055528743,0.17055032480573135,0.33467182901180076,0.2804834827620328,0.2999754142253268,0.5135516479051435,0.43459227151666435,0.15633090674940778,0.1705581374631955
207,1456704055528743,0.16857092874332008,0.3289649499774024,0.2833463535122861,0.2982075680041814,0.5049816843946923,0.42641991855235856,0.1563117875109604,0.1686572101237753
208,1456704055538253,0.16618457636695666,0.32257073389266816,0.286779990972313,0.2956010979733918,0.49490563292021217,0.4175918970822197,0.15687273284306041,0.16672576405208503
209,1456704055538253,0.1634313551851163,0.3156050296983791,0.29075497649269505,0.2921902419528815,0.4834870854859354,0.40826966500420886,0.15797489064966652,0.16477948461931902
210,1456704055552254,0.16035802074642425,0.30819313403316867,0.29522089000134477,0.2880326671311697,0.4709313263874815,0.39861830174163865,0.15956358002526097,0.16282966724159192
211,1456704055552254,0.15701713866362724,0.30046688444470593,0.30010674283221356,0.28320789456356027,0.4574812104056681,0.38880243986882296,0.16156980173259416,0.16088331425509145
212,1456704055561256,0.15346622500723084,0.2925616393517841,0.30532222571412015,0.2778147923522662,0.4434116424983252,0.37898274525149683,0.16391242020210003,0.1589435792079986
213,1456704055561256,0.1497668792036162,0.28461322700326736,0.31075976210686834,0.2719682251165446,0.4290227394228388,0.3693130290865831,0.1665009478434862,0.15701052498311102
214,1456704055566255,0.14598388849865904,0.2767549674999632,0.3162973279490174,0.2657949958898295,0.4146318171903915,0.3599380105091259,0.16923882857003505,0.15508214137637072
215,1456704055566255,0.142184272585742,0.26911487771187464,0.3218019606611429,0.25942927566390933,0.40056443244863454,0.3509916761533424,0.17202708843374376,0.1531555502379321
216,1456704055582362,0.13843623162495466,0.26181315284231127,0.3271338284119193,0.2530077670876218,0.38714479152992637,0.3425961315293823,0.17476819367074972,0.1512283148892339
217,1456704055582362,0.1348079658116484,0.25495999859595636,0.33215068458145725,0.24666486534859347,0.37468589798734714,0.3348608239783474,0.17736992831849202,0.14929976752872504
218,1456704055589256,0.13136635531412888,0.24865387731146785,0.3367125151040508,0.2405280594326799,0.36347982976625276,0.32788202899537,0.17974907677581756,0.14737227358208663
219,1456704055589256,0.1281755219536128,0.24298022102275527,0.34068619777752074,0.23471378059955206,0.35378853460432397,0.3217425114977126,0.1818346801661711,0.1454523629522116
220,1456704055599257,0.12529532624928913,0.23801064093215202,0.34395000896724376,0.22932386557071444,0.34583551670713986,0.31651129096244784,0.183570645034086,0.14355166824100626
221,1456704055599257,0.12277987415991314,0.23380262474589114,0.3463978122256152,0.2244427596815096,0.33979875221239025,0.312243457084617,0.18491753112304568,0.14168761034829577
222,1456704055612258,0.1206761122667019,0.23039966941215817,0.3479427464440934,0.2201355397102512,0.33580510816612263,0.30898000672889225,0.18585342600170823,0.13988376278987075
223,1456704055612258,0.11902258003679596,0.22783176159933857,0.3485202221734431,0.2164467929529516,0.33392646186684,0.3067477017114135,0.18637390394047104,0.13816982385425672
224,1456704055620798,0.11784836965686725,0.22611610633999257,0.348090058515361,0.2134003534399415,0.33417764795018917,0.3055589702847846,0.18649114088647153,0.1365811484673436
225,1456704055620798,0.11717232522725858,0.22525801761835212,0.34663765226041626,0.21099986572167248,0.3365163082597809,0.3054118854235102,0.18623231025121842,0.13515783892432728
226,1456704055634289,0.11700249869015925,0.22525190708304846,0.34417414735566104,0.2092301163662602,0.3408446702087611,0.306290252313555,0.18563742128042385,0.13394344570521174
227,1456704055634289,0.11733587128568976,0.22608231806456766,0.34073564605434925,0.20805904509288425,0.3470132151841983,0.30816383243663925,0.1847567850560334,0.13298336645851916
228,1456704055641285,0.11815834508194482,0.22772494708866772,0.3363815607778635,0.20744032835093507,0.35482611858547275,0.31098872549196416,0.1836482992848392,0.13232304736012926
229,1456704055641285,0.11944500526339925,0.2301475881208678,0.33119224405321285,0.20731641792170272,0.36404826164685544,0.3147079235468666,0.18237473180152736,0.13200609222921633
230,1456704055657286,0.1211606488845432,0.23331094265730465,0.3252660603870094,0.20762190541169143,0.374413545197683,0.3192520461965054,0.18100115811463638,0.13207237937944863
231,1456704055657286,0.12326057317595918,0.23716926566472984,0.31871608646938315,0.20828706234236263,0.3856341761782577,0.3245402631819706,0.17959267465970333,0.13255628025260932
232,1456704055659285,0.12569161723446504,0.24167085249721365,0.31166663470520495,0.20924137807721652,0.39741053963304007,0.330481407260432,0.1782124711553728,0.13348506721684536
233,1456704055659285,0.12839344878405964,0.2467584001424386,0.30424977314757873,0.2104168948510225,0.40944121174944825,0.33697526456357313,0.17692030595545616,0.13487758490228277
234,1456704055672371,0.131300077259992,0.25236929088123167,0.2966019674845767,0.21175113584514946,0.42143263093980843,0.3439139998439752,0.17577138833711456,0.1367432381665009
235,1456704055672371,0.13434155828943023,0.25843585197355523,0.28886092115126033,0.21318945277169102,0.4331079502978027,0.3511836472142292,0.17481563245570375,0.13908132662240189
236,1456704055680287,0.1374458383023369,0.2648856480591057,0.28116265280106584,0.21468667908434705,0.4442146630605928,0.3586655997583457,0.17409721350357849,0.14188073814471155
237,1456704055680287,0.14054067278101218,0.2716418632570843,0.27363882651214216,0.21620803510222897,0.45453070955177016,0.3662380703733075,0.17365433437459055,0.14512000282720097
238,1456704055694293,0.1435555355172651,0.2786238207171731,0.26641433852156465,0.21772927132656086,0.46386889493108346,0.37377754339378266,0.1735191084996967,0.14876769979673993
239,1456704055694293,0.1464234209433279,0.28574766758745274,0.25960516583509213,0.21923607017445926,0.4720795401830145,0.3811602561963537,0.1737174824874941,0.1527831977285547
240,1456704055701293,0.1490824354552196,0.2929272317457421,0.253316489872127,0.2207227779309402,0.47905136906272205,0.3882637373118918,0.17426914791828926,0.15711769584014046
241,1456704055701293,0.15147708629421994,0.3000750405205121,0.2476411111781803,0.2221906018988624,0.4847107280170999,0.3949684084227437,0.17518740766202187,0.16171551900884878
242,1456704055717808,0.1535592123495044,0.30710348390745973,0.24265816733558498,0.2236454556966502,0.48901933663712066,0.4011592525019258,0.17647896658881895,0.16651561031142345
243,1456704055717808,0.15528855397461824,0.3139261103564509,0.2384321625971988,0.22509565683758154,0.4919708429406562,0.4067275513725536,0.17814362676246293,0.1714531542857795
244,1456704055719808,0.15663301021367218,0.3204590621182664,0.2350123179682201,0.2265496826679388,0.4935864984555035,0.4115726837735824,0.1801738976995283,0.17646125371818083
245,1456704055719808,0.15756866236553138,0.32662267543092743,0.23243225010593105,0.22801417853330996,0.4939102847764973,0.4156039476638817,0.18255457356932006,0.18147257884417123
246,1456704055731310,0.1580796476790574,0.3323432713639486,0.23070998005449794,0.22949238354556345,0.4930038248882379,0.41874234178504327,0.18526235567819246,0.18642091948931303
247,1456704055731310,0.15815795465358723,0.33755513944117105,0.22984825583531382,0.23098309517357815,0.4909413917702667,0.42092222085567704,0.1882655961022964,0.19124259565631244
248,1456704055741371,0.15780319143277716,0.3422026701810542,0.22983514973982067,0.2324802388471023,0.4878052804483534,0.42209272975345535,0.19152421494794727,0.1958777040569573
249,1456704055741371,0.15702235677268775,0.3462425325050724,0.230644871705951,0.23397304791491472,0.4836817510232783,0.4222189312333693,0.19498981636458354,0.20027118140277203
250,1456704055755406,0.15582962173639492,0.3496457350157857,0.23223873813475449,0.23544679908658966,0.47865769182394013,0.4212825716126361,0.19860601166706707,0.2043736541602032
251,1456704055755406,0.15424610845291975,0.3523993729762452,0.23456625884769128,0.23688399648415145,0.4728180902380174,0.419282464159893,0.20230896110742877,0.20814204200753478
252,1456704055764319,0.15229962724700996,0.35450784877665553,0.23756634304361082,0.23826585733695504,0.4662443240968677,0.4162344860976996,0.20602816565846402,0.21153990467786823
253,1456704055764319,0.1500243083502152,0.3559933665144385,0.24116865250587122,0.23957392395073204,0.45901320309944993,0.4121711787573698,0.2096875572936001,0.2145375583910408
254,1456704055778371,0.14746005063139994,0.3568955569511526,0.2452951315868622,0.24079161403732002,0.45119662405660566,0.40714094031110193,0.21320693191319565,0.2171120126853133
255,1456704055778371,0.1446517188960879,0.3572701882806448,0.24986172940772283,0.2419055361213162,0.44286168746346755,0.4012068341857661,0.21650374262676375,0.2192467787697769
256,1456704055780364,0.14164805530261013,0.3571870253215147,0.254780319441602,0.2429064428196745,0.4340711635560042,0.3944450943159523,0.21949523382291278,0.22093158508380642
257,1456704055780364,0.13850031980390157,0.35672697863928454,0.2599608175423977,0.24378975622582924,0.42488426318504857,0.3869434556045232,0.22210085789342918,0.2221620174442791
258,1456704055792374,0.13526072349194096,0.35597873520973344,0.265313487562768,0.24455565334867768,0.41535771475202643,0.3787994501211629,0.2242448845348546,0.22293908650889865
259,1456704055792374,0.13198075325692182,0.3550350950248094,0.2707513913821629,0.24520873868034393,0.4055471457368204,0.3701187869003172,0.22585909368410462,0.22326871771161408
260,1456704055801402,0.12870950014830798,0.35398924441152524,0.27619288751948495,0.24575736254400654,0.3955087261600574,0.36101388594713474,0.2268854338298322,0.22316116028983204
261,1456704055801402,0.12549209913056328,0.3529311648456536,0.28156402450028223,0.24621267198680202,0.38530098051033684,0.3516025728852123,0.22727851661817283,0.22263031980802636
262,1456704055815320,0.12236837013647206,0.35194431908303986,0.28680063658677585,0.24658750322796416,0.3749866337382012,0.34200687123337636,0.22700780337587712,0.22169302650127812
263,1456704055815320,0.11937172578271411,0.35110270275774447,0.2918499477319433,0.24689523533861027,0.3646343303719629,0.33235177829442725,0.22605932839272505,0.2203682565410874
264,1456704055822367,0.11652838580237823,0.35046831474999535,0.29667151816500775,0.24714871588072224,0.35432005590801546,0.3227638994429463,0.22443680929336135,0.21867632736733497
265,1456704055822367,0.1138569165807346,0.35008908073176886,0.30123740934307613,0.2473593390046506,0.3441281021850208,0.31336984613404734,0.22216202731638782,0.21663809605740786
266,1456704055838485,0.11136809854658365,0.34999725602230264,0.3055315004312918,0.24753631868091833,0.3341514556828775,0.30429436443724833,0.2192744239791627,0.2142742032144493
267,1456704055838485,0.10906511427878618,0.35020833640450577,0.3095479815099321,0.2476861727120152,0.32449154180496587,0.29565823681847225,0.215829940883849,0.21160441947946387
268,1456704055839334,0.10694404232925882,0.35072051414923533,0.3132891620298126,0.24781241970151835,0.31525731258104034,0.2875760624410886,0.21189919935304619,0.20864715724236124
269,1456704055839334,0.10499463169152781,0.3515147193123021,0.31676281426695685,0.24791547791190294,0.3065637031555909,0.2801540435759116,0.20756516086071916,0.205419199682751
270,1456704055852335,0.10320131921067069,0.35255527753229826,0.3199792848827311,0.24799273306191147,0.2985294994221506,0.27348788544291003,0.2029204304557945,0.201935676343243
271,1456704055852335,0.10154444013747871,0.35379119529271474,0.32294857562418944,0.24803872083030745,0.2912746669918248,0.26766087345581047,0.19806436918515177,0.1982102869638258
272,1456704055860492,0.10000157356190367,0.3551580481756034,0.3256775664626567,0.2480453673539177,0.2849172098151897,0.26274214635552867,0.19310016843457242,0.1942557483526687
273,1456704055860492,0.09854896165597422,0.35658039770756583,0.32816755358315347,0.2480022533779541,0.2795696658887191,0.25878515048094075,0.18813201016214948,0.19008441610922805
274,1456704055875336,0.0971629444511895,0.3579746154693212,0.33041228214594703,0.2478968989501412,0.2753353944496691,0.25582625093700767,0.18326239904533914,0.18570901863875985
275,1456704055875336,0.09582135589078326,0.35925196822672656,0.3323966411343611,0.24771508447905893,0.2723048354909036,0.25388349570909197,0.17858971605392215,0.1811434368924081
276,1456704055882337,0.09450482657266715,0.36032181312294453,0.33409614640842755,0.24744122767916424,0.2705519158350652,0.2529555686875598,0.1742060154805017,0.1764034650085729
277,1456704055882337,0.09319793444464648,0.36109475396099067,0.33547727804466304,0.24705883508041382,0.2701307519359974,0.25302100446789416,0.17019506969560735,0.17150748975290891
278,1456704055897337,0.09189014395520306,0.3614856153590631,0.3364986709864153,0.24655104371339878,0.2710727778867993,0.25403776000452044,0.16663065590804754,0.16647703264985886
279,1456704055897337,0.09057648337616855,0.3614161052237991,0.33711309382070287,0.2459012566379386,0.273384410485479,0.25594325169228765,0.16357507920578226,0.16133711174804946
280,1456704055899337,0.08925792846080288,0.36081705572640943,0.3372700991794987,0.24509385715143267,0.27704534545882076,0.2586549724764944,0.16107793865316455,0.15611639685029963
281,1456704055899337,0.08794148020730372,0.35963015665546466,0.336919192729631,0.24411497297110568,0.2820075599542005,0.2620717900308834,0.15917516180787672,0.1508471461095151
282,1456704055912337,0.08663993780295182,0.35780912803266424,0.3360133324405953,0.24295325899417253,0.2881950786817157,0.2660759883419883,0.1578883450523679,0.14556492110697303
283,1456704055912337,0.08537137758078443,0.3553203260715071,0.33451252384796354,0.24160066752911605,0.2955045439122052,0.2705360613835892,0.15722443536817535,0.14030808587294455
284,1456704055920852,0.08415836488797772,0.3521428323497903,0.33238723642184864,0.24005316833273638,0.3038066133201801,0.27531021049931187,0.1571757759046337,0.13511710902404364
285,1456704055920852,0.0830269496176618,0.3482681261443267,0.3296213675535453,0.23831136676987794,0.3129481946171277,0.28025044177589725,0.1577205203119326,0.13003370959692873
286,1456704055935366,0.08200551604758695,0.3436994705308386,0.32621453628889807,0.23638095488028915,0.3227555076721581,0.28520711239659186,0.15882340650694834,0.12509990960075892
287,1456704055935366,0.08112356298668136,0.33845114862861364,0.3221835646180229,0.2342729268774092,0.3330379408139386,0.29003374463092363,0.16043687172063245,0.12035706758806902
288,1456704055941368,0.08041048279047337,0.33254767100886984,0.31756306342046525,0.23200350427327898,0.34359264096087533,0.2945919143018523,0.16250248421079694,0.11584496054902763
289,1456704055941368,0.079894395445269,0.32602304764956014,0.31240509303966435,0.22959374770522897,0.35420974658485077,0.2987560188258302,0.16495266006779516,0.1116009600198368
290,1456704055957362,0.07960108100755575,0.3189201862715857,0.3067779455154984,0.22706887653431146,0.3646781303998044,0.30241772956228974,0.16771262777933393,0.10765932278575924
291,1456704055957362,0.0795530403712679,0.31129044761357044,0.3007641906954218,0.22445736097357005,0.37479145873402975,0.30548993087089754,0.17070260019965622,0.104050596380395
292,1456704055959363,0.07976870063032361,0.3031933593283077,0.29445820101809284,0.22178988366112767,0.38435430702100293,0.3079099460731207,0.17384010971926644,0.10080112960714917
293,1456704055959363,0.080261769322173,0.29469646617017675,0.2879633906660195,0.21909828368371187,0.3931880278584193,0.3096418608160498,0.177042453616569,0.09793267817849781
294,1456704055971363,0.08104073497564458,0.28587527393218193,0.28138937724475926,0.2164145951249601,0.40113607886713126,0.31067779385205274,0.18022918406289917,0.09546210132523775
295,1456704055971363,0.08210851154987286,0.2768132235066795,0.27484921914898186,0.2137702742090256,0.40806857037356475,0.3110380322865029,0.18332456521704588,0.0934011524440892
296,1456704055980363,0.08346222939033913,0.2676016098887949,0.2684568195177028,0.21119567760342073,0.41388583960708336,0.31077001829676,0.18625991097006098,0.09175637196703484
297,1456704055980363,0.08509317978217022,0.2583393477510465,0.2623245289566157,0.20871981620174415,0.4185208681214669,0.3099462260408556,0.18897571319614778,0.09052909064414773
298,1456704055995393,0.08698691993177937,0.2491324892303236,0.2565609278394919,0.20637036814823967,0.4219403574584642,0.3086610036494737,0.19142347494722892,0.08971554505114022
299,1456704055995393,0.0891235405912037,0.24009342115184668,0.25126873264005306,0.2041738924012477,0.4241443210261768,0.30702649417936717,0.19356717824415837,0.08930709638957231
300,1456704056001369,0.09147809191353327,0.23133970160853204,0.24654276469890593,0.20215614236468585,0.42516416114941125,0.30516780202913785,0.19538433957903992,0.08929053294635474
301,1456704056001369,0.09402115612467069,0.22299253358341523,0.2424679515422926,0.20034234948338323,0.42505933485911784,0.3032176252861909,0.19686663127906867,0.08964843027443246
302,1456704056026156,0.09671954984971137,0.21517491128515057,0.2391173833205268,0.1987573445609196,0.4239128094846249,0.3013106055469729,0.1980200684940034,0.09035954395936889
303,1456704056026156,0.09953713564351932,0.20800950427750248,0.23655048996500688,0.1974254139095776,0.4218255681493924,0.29957764782263097,0.19886477786949067,0.09139921782614857
304,1456704056028193,0.10243572026489697,0.2016163559988187,0.23481142457108858,0.1963698358889151,0.4189104865671535,0.29814045103615383,0.19943437058401461,0.09273980220902502
305,1456704056028193,0.10537601459088022,0.19611046849054536,0.23392774540923952,0.19561209614471392,0.4152859706275196,0.2971064790803546,0.19977493245350325,0.09435108684806784
306,1456704056031501,0.10831862659914633,0.1915993371636445,0.23390949371422548,0.19517083070843083,0.4110697777533986,0.29656458816218906,0.19994361805896102,0.09620075713359982
307,1456704056031501,0.11122505456401537,0.18818049803185752,0.23474876185619872,0.19506059050856694,0.40637341705815905,0.2965814963726009,0.20000681080959276,0.09825488100503184
308,1456704056040505,0.11405864211344116,0.18593915156398885,0.2364198251281009,0.19529054941234514,0.40129744995764005,0.2971992339708099,0.20003781158695577,0.10047843014983014
309,1456704056040505,0.11678545219932863,0.1849459237217304,0.23887986733762218,0.19586328546323167,0.39592792332081267,0.29843365290752066,0.2001140578461791,0.102835836153342
310,1456704056054706,0.11937501731858871,0.18525481501646573,0.24207027444324836,0.19677375824502008,0.39033407734108644,0.30027400954820643,0.2003139385559899,0.10529157922073863
311,1456704056054706,0.12180092897144411,0.18690137804585974,0.24591841906683717,0.1980085940167178,0.38456738775835375,0.302683578348553,0.20071333038482725,0.10781080221609415
312,1456704056062506,0.12404123715588893,0.1899011564862117,0.2503398319363807,0.19954577579404273,0.378661932565985,0.30560121931370143,0.2013820212643163,0.11035993857751836
313,1456704056062506,0.12607864049423423,0.1942484141327715,0.2552406613104583,0.20135481272989686,0.3726360139517647,0.3089438097277448,0.20238020777615925,0.11290734288034784
314,1456704056077702,0.12790046376996164,0.19991518115565549,0.2605203402936733,0.20339742798907912,0.3664949081162299,0.31260944970655347,0.20375525331950797,0.1154239145527074
315,1456704056077702,0.12949844354309692,0.20685064585864807,0.2660743872004728,0.20562875814694614,0.36023455823968326,0.3164813483151887,0.20553887665630075,0.11788370244841105
316,1456704056079507,0.13086836708639274,0.21498092176424682,0.2717972484244663,0.2079990075870492,0.35384597828874537,0.32043228374812,0.20774491450307123,0.12026447099722185
317,1456704056079507,0.13200962443835168,0.22420921973109822,0.2775850738768705,0.2104554589514738,0.3473201023930588,0.32432950518003817,0.21036777734335782,0.12254820376257032
318,1456704056100847,0.13292473299786464,0.23441645454086177,0.2833383109189047,0.21294471127200887,0.34065278832838675,0.3280399104058396,0.21338169503347582,0.12472152219779689
319,1456704056100847,0.13361888410201792,0.24546231756606965,0.28896401712297665,0.21541499901110867,0.333849650880476,0.3314353001023003,0.21674082205509354,0.12677600605338826
320,1456704056102509,0.13409955036279508,0.2571868498917838,0.29437781559987564,0.2178184323263749,0.32693035967732387,0.3343974802627919,0.22038023848290822,0.12870841355337828
321,1456704056102509,0.13437618367891052,0.26941254891180594,0.29950543740704566,0.22011298775567836,0.319932009311747,0.3368229628566188,0.22421784328203093,0.13052080949262015
322,1456704056115528,0.13446002253236936,0.28194703202295224,0.3042838082273042,0.22226407322449487,0.3129111975368458,0.33862701293985015,0.2281570927966655,0.1322206132909359
323,1456704056115528,0.13436400988249866,0.29458626033495433,0.3086616474992781,0.2242455081908759,0.30594455377762797,0.3397468224802326,0.2320904901300535,0.13382057253063134
324,1456704056122035,0.134102800985686,0.3071182943516759,0.31259957519371895,0.2260398167966909,0.29912762226418216,0.34014365906848604,0.23590368367384004,0.13533864972935605
325,1456704056122035,0.1336928195600299,0.319327519778687,0.31606977539828046,0.22763782390296328,0.2925721701823829,0.3398039253659153,0.23947999119117994,0.1367977868624103
326,1456704056137896,0.13315230943081063,0.3309992508656018,0.3190553293246056,0.22903763802603241,0.2864021273907305,0.33873914465810057,0.24270513540519817,0.13822549388878666
327,1456704056137896,0.13250133404324646,0.34192459319781515,0.3215493690918555,0.2302431702275561,0.28074846486140004,0.33698493875826724,0.24547195841576935,0.13965320354821392
328,1456704056139617,0.1317616966419388,0.35190543343081854,0.3235542023662204,0.23126236922398155,0.2757433814591208,0.3345990921154487,0.24768486729349332,0.14111534788465915
329,1456704056139617,0.13095677766216476,0.3607594236833867,0.325080527713841,0.2321053620509448,0.2715141838138422,0.3316588179628563,0.24926374531974427,0.14264813864096673
330,1456704056151917,0.13011129844946842,0.36832483108224373,0.32614681545495944,0.2327826823268501,0.26817721253246835,0.3282573595995707,0.25014705812112226,0.1442880692181281
331,1456704056151917,0.1292510169442648,0.3744651099868016,0.32677887373758924,0.23330374301350365,0.26583210865252394,0.32450006483655214,0.25029392719073207,0.14607019676356536
332,1456704056160618,0.1284023501536054,0.37907302406135157,0.32700955742780724,0.23367567162741806,0.2645566507732111,0.3205000759947113,0.24968505009296962,0.14802630208536716
333,1456704056160618,0.1275919137257109,0.38207411447558376,0.3268785170296469,0.2339025840007532,0.26440234026806236,0.31637380138754245,0.24832248023064277,0.15018305168511784
334,1456704056174625,0.12684597731815225,0.38342929824189687,0.32643184155078575,0.2339853346070946,0.265390874661845,0.3122363720711648,0.24622838295397753,0.15256029245798544
335,1456704056174625,0.1261898515922694,0.38313639782372355,0.3257214394953269,0.23392174511392277,0.26751162726255506,0.3081973135718335,0.2434429402887397,0.15516959552450388
336,1456704056181620,0.12564723974361713,0.38123045215994245,0.32480403656257617,0.2337072758062758,0.2707202364088805,0.3043566582236566,0.240021605545108,0.158013138808944
337,1456704056181620,0.12523959702422016,0.3777827396538769,0.3237397470933708,0.23333607369063142,0.27493838583809305,0.30080169148961533,0.23603192944704027,0.16108298935875745
338,1456704056198620,0.12498554438619949,0.37289855116129,0.3225902788209386,0.23280231857428033,0.28005482009821675,0.2976044783915731,0.23155018636382954,0.16436082419042192
339,1456704056198620,0.12490037904868369,0.3667138632801483,0.3214169132546665,0.232101794798812,0.2859275904321675,0.29482026597269606,0.22665801584718429,0.1678181136720127
340,1456704056199621,0.1249957159034449,0.3593911375528848,0.32027843025323866,0.23123362375192064,0.29238747633284773,0.29248680579700664,0.22143926426942118,0.17141677783533363
341,1456704056199621,0.12527927776123274,0.3511144826622884,0.3192291253351793,0.2302020822166045,0.29924247877897037,0.29062458062766666,0.2159771684760324,0.17511030495858784
342,1456704056211628,0.12575483101570184,0.34208438410135683,0.3183170428368958,0.22901840511460647,0.30628322953341325,0.28923785250543466,0.21035197061938068,0.1788452894972358
343,1456704056211628,0.12642224138899522,0.332512174704855,0.3175825344891089,0.22770244586143504,0.3132891032599429,0.28831638807555515,0.20463899876486163,0.18256330596085
344,1456704056220919,0.1272776059668042,0.32261441127743956,0.31705723788243523,0.2262840583207667,0.3200347610559012,0.2878376741135882,0.19890720548083984,0.18620299380467975
345,1456704056220919,0.12831340721997267,0.31260732072796027,0.3167635445588593,0.22480407293900495,0.3262968151305626,0.28776941582271204,0.19321813539872937,0.18970219722068318
346,1456704056235437,0.12951864157590165,0.3027014617299057,0.3167145988714595,0.22331476068736025,0.33186030934115046,0.2880721104579502,0.18762528734910475,0.19299999813781885
347,1456704056235437,0.1308789042093493,0.2930967173674661,0.316914834942611,0.2218797084781522,0.3365247702130921,0.2887015059954149,0.18217383296974132,0.19603850964176747
348,1456704056241441,0.13237644935776083,0.2839777105554272,0.317361010851806,0.22057306796303824,0.3401096838462435,0.28961078706095883,0.17690064220677587,0.19876434958636827
349,1456704056241441,0.13399026941760148,0.27550972999728024,0.31804363870298247,0.21947818636907407,0.34245935893634266,0.29075237918218766,0.1718345492151398,0.20112976508232325
350,1456704056257437,0.13569624008977083,0.2678352644330818,0.31894865286636426,0.21868568157356372,0.34344720441307786,0.2920793262926436,0.1669967829093604,0.20309341107212575
351,1456704056257437,0.13746737395061737,0.2610712531179,0.3200591238730795,0.21829107257827604,0.3429794624642393,0.29354626234828224,0.16240150018481428,0.20462080276230424
352,1456704056263436,0.13927421945872479,0.2553071612645507,0.3213568269477453,0.21839210344298776,0.3409984064668689,0.2951100469824009,0.15805639664958734,0.20568447134074402
353,1456704056263436,0.14108543421560482,0.2506039758509433,0.32282352410115306,0.21908589807078688,0.3374849697120916,0.2967301587900901,0.15396340771037328,0.20626386008944173
354,1456704056271437,0.14286854623102935,0.24699418723521216,0.3244419067067269,0.22046606571745817,0.33246073615973076,0.29836894129909164,0.15011952977395004,0.20634500693916855
355,1456704056271437,0.14459089603355071,0.2444827766880695,0.32619622638926327,0.22261985451507219,0.3259891957756978,0.2999917803440758,0.14651778636510213,0.20592007171697269
356,1456704056280437,0.14622073026223378,0.2430491751945603,0.3280726723075266,0.22562542925764184,0.31817613619363444,0.30156726339657713,0.14314834971268992,0.2049867769270583
357,1456704056280437,0.14772840002820684,0.2426501028478873,0.3300595377718628,0.22954933898882732,0.30916902371230554,0.3030673444854301,0.13999981157202768,0.20354782891258066
358,1456704056295473,0.1490876110118496,0.24322314744925141,0.33214720204492637,0.23444424805473332,0.2991552510155427,0.3044675247952441,0.13706057799702118,0.20161036772669633
359,1456704056295473,0.15027667877609246,0.2446908995676425,0.3343279617568656,0.24034702482721582,0.2883592069516331,0.30574705837939453,0.13432034469041432,0.199185472807146
360,1456704056302471,0.1512797572623079,0.24696543409484217,0.336595768604038,0.2472772928073005,0.2770382212861691,0.3068891955213578,0.13177159672895705,0.19628774620149486
361,1456704056302471,0.15208802194545035,0.24995292137279412,0.33894594367990877,0.25523653231069143,0.26547750427971956,0.30788147792952353,0.1294110667557871,0.19293500387620943
362,1456704056318244,0.1527007922144222,0.2535581629115736,0.3413749417491544,0.2642077834663224,0.2539842217639782,0.3087161006985222,0.1272410753326518,0.18914810718897943
363,1456704056318244,0.1531265644263424,0.2576888624783671,0.3438802372788991,0.2741559617067258,0.2428808470697895,0.309390352348333,0.12527067049583898,0.18495094709372675
364,1456704056324244,0.15338390016884038,0.26225944804320933,0.34646039051810884,0.28502876427948437,0.23249794060501813,0.30990712801164716,0.12351648897271374,0.18037056220265163
365,1456704056324244,0.1535020846427241,0.26719426108411015,0.34911531602013607,0.2967581148299443,0.22316653404551026,0.3102754830818148,0.12200327835556048,0.17543734922105816
366,1456704056332253,0.1535214529747339,0.2724299534612381,0.35184672761587105,0.3092620569119304,0.2152103314807391,0.31051116875724566,0.12076403880259262,0.17018532245510717
367,1456704056332253,0.15349328888955496,0.27791699170204065,0.35465869364362335,0.32244696913638327,0.2089379681120902,0.31063707539708857,0.1198397592720288,0.16465239097129716
368,1456704056341253,0.1534792296101498,0.2836202440592629,0.3575582069728685,0.33620993938782723,0.20463556975501276,0.3106835008600233,0.11927873926462118,0.15888063028175498
369,1456704056341253,0.15355015110706155,0.2895186857812505,0.3605556415414902,0.35044110698079123,0.20255982693699406,0.31068815643627046,0.11913550447886394,0.1529165225139369
370,1456704056355255,0.1537845458013717,0.29560429401286537,0.36366493049018184,0.3650257725178126,0.20293174616071016,0.31069582818610647,0.11946933888513475,0.14681113594781878
371,1456704056355255,0.15426643419730754,0.30188022976402834,0.3669032893769073,0.37984610757792875,0.20593118486074796,0.3107576330110055,0.12034246150063227,0.1406202268676645
372,1456704056362257,0.15508287446745422,0.3083584321068036,0.37029035453590653,0.39478237846760045,0.2116922296787823,0.3109298472614002,0.12181787953027935,0.13440427200869795
373,1456704056362257,0.15632115491481233,0.3150567774255596,0.3738467108566846,0.4097137063063964,0.22029944732553294,0.3112723338482068,0.12395696290522236,0.12822846019210754
374,1456704056378396,0.15806577277506434,0.32199597726772233,0.3775919024905956,0.42451847849676744,0.2317850233683803,0.31184663738759344,0.1268168102419463,0.1221626730323877
375,1456704056378396,0.1603953125278301,0.32919639385916577,0.3815421035826293,0.4390745734694423,0.24612680320071592,0.3127138438375157,0.1304475016673142,0.11628146875746168
376,1456704056384366,0.16337933862699977,0.3366749323139914,0.3857076526679213,0.4532595531064356,0.2632472583322861,0.3139323121663771,0.13488935075355318,0.11066406225925728
377,1456704056384366,0.16707542102920378,0.34444212265235163,0.3900906339102848,0.46695092927801796,0.28301341448364914,0.31555538781038694,0.1401702749409705,0.10539428042987371
378,1456704056401398,0.1715264188509197,0.352499454843334,0.39468264535504755,0.4800265545470961,0.30523778629279613,0.3176292004568405,0.1463034023451031,0.10056046854325419
379,1456704056401398,0.1767581469443108,0.3608370074319944,0.399462856700176,0.4923651549465631,0.3296803606451453,0.32019062917715396,0.15328502501661753,0.09625532588206331
380,1456704056403364,0.1827775345822714,0.369431427554265,0.4043964458721373,0.503847024417362,0.35605165698016056,0.3232654932794506,0.16109299957127426,0.09257565125474967
381,1456704056403364,0.18957135994886695,0.37824436046298454,0.40943351259052174,0.5143549201833665,0.3840168685821126,0.32686700748127123,0.1696856881632541,0.08962198131680765
382,1456704056415398,0.1971056184082639,0.38722145920688605,0.41450857946050185,0.5237752147460994,0.41320105200420126,0.33099452545619423,0.17900152185038212,0.0874981077884193
383,1456704056415398,0.20532556094693535,0.39629210878980076,0.4195407894075274,0.5319993609103278,0.44319528697527194,0.33563258199215307,0.18895924826796728,0.08631046119524005
384,1456704056422132,0.21415641931847673,0.40536997326900437,0.42443488684524944,0.5389257077347626,0.473563693581723,0.34075023177268626,0.19945889481641085,0.08616734572641481
385,1456704056422132,0.2235048118993118,0.4143544277264791,0.42908303606146136,0.544461672505289,0.5038511861306908,0.3463006792615298,0.21038344186603358,0.08717800267217199
386,1456704056452423,0.23326079714238895,0.42313287349316453,0.43336749447554207,0.5485262389230073,0.5335918602653428,0.35222120762192427,0.22160116431057733,0.08945147122550615
387,1456704056452423,0.24330050930097855,0.43158385656581827,0.4371641193298588,0.5510527215969244,0.5623179200996515,0.3584334425567553,0.23296856747403813,0.09309520872375919
388,1456704056454417,0.2534892746860866,0.4395808268398203,0.440346630752907,0.5519917034987398,0.5895690293358126,0.36484400849546683,0.24433381340728139,0.09821343122611015
389,1456704056454417,0.26368507257768187,0.4469963017561223,0.4427914763410374,0.5513140069043564,0.6149019255841388,0.371345631827044,0.2555405038903303,0.1049051405257564
390,1456704056460649,0.2737421834063784,0.453706139117211,0.4443830575086922,0.549013510457066,0.6379000995230756,0.37781873144796946,0.2664316587680051,0.11326181456060434
391,1456704056460649,0.2835148636718308,0.45959359857294146,0.44501901294449236,0.5451096017556009,0.6581833166895213,0.3841335352781407,0.27685370933167425,0.12336475508526959
392,1456704056462417,0.2928609011506145,0.46455291155235,0.4446152307180678,0.5396490688847191,0.6754167375127076,0.3901527685582818,0.28666032625316346,0.1352821069837326
393,1456704056462417,0.30164493193244407,0.4684921902006102,0.44311028111754047,0.5327072680729663,0.6893193737124679,0.39573494747651045,0.29571592353021975,0.1490655806494486
394,1456704056475417,0.3097414363637919,0.4713356395025419,0.4404690173164385,0.524388435691034,0.6996716203338215,0.4007382655697777,0.3038987112440265,0.1647469193299904
395,1456704056475417,0.31703736206803274,0.4730251352827978,0.4366851712956101,0.5148250508461525,0.7063216186188861,0.40502499267738196,0.31110319583685914,0.1823341646100871
396,1456704056482417,0.32343433899009805,0.4735212819696457,0.43178286241818997,0.504176225027206,0.7091902180765725,0.4084662390812419,0.3172420544101416,0.20180779591451814
397,1456704056482417,0.3288504566796971,0.47280408991277323,0.4258169995863549,0.4926251847610532,0.7082743071460821,0.4109468868044076,0.3222473573445656,0.22311685542897028
398,1456704056497420,0.3332215776768253,0.47087341796217114,0.4188725681715769,0.4803759779457748,0.7036482801040431,0.4123704619723685,0.3260711743103649,0.2461752093827034
399,1456704056497420,0.33650216479687145,0.4677492975959175,0.4110627775787923,0.46764955947140036,0.6954634365073932,0.41266371441877114,0.3286856396766094,0.27085813418650573
400,1456704056504432,0.3386655985846587,0.4634721925338993,0.402526066711786,0.4546794206157948,0.6839452031908665,0.4117806723083531,0.3300825549515891,0.2969994544628499
401,1456704056504432,0.33970395364078443,0.4581031800369322,0.39342204951580767,0.44170693506756376,0.6693882151589967,0.4097059367163905,0.3302725833825706,0.3243894984825622
402,1456704056520939,0.33962719954493237,0.45172398741832587,0.38392659594293704,0.4289765910196598,0.6521494295651389,0.4064569768687332,0.32928407440074514,0.3527741589957203
403,1456704056520939,0.33846181403479186,0.44443677640982504,0.3742263311404159,0.41673125038925934,0.6326395306070287,0.40208520976115275,0.327161557964658,0.3818553363319153
404,1456704056526945,0.33624885712912833,0.4363635313140267,0.36451287241987584,0.4052075286489896,0.611312923570072,0.39667572397613815,0.32396396855234944,0.4112929965148716
405,1456704056526945,0.3330416363918661,0.42764488506928283,0.35497711632732143,0.394631342295074,0.5886566481387434,0.39034561956244473,0.31976269068232527,0.440709014886255
406,1456704056533449,0.3289031523061193,0.41843823559227056,0.34580385058293683,0.385213641806216,0.5651785729303973,0.3832410333897808,0.31463955841315183,0.46969290346342046
407,1456704056533449,0.3239035266987948,0.40891507586829884,0.3371669042803625,0.37714633687490046,0.5413952470114584,0.3755329770968853,0.3086849754420024,0.4978094326560971
408,1456704056543448,0.31811760006856354,0.39925756322096995,0.32922496911168153,0.3705984199083818,0.5178197694250819,0.36741215494180235,0.3019963254710622,0.5246080495579004
409,1456704056543448,0.31162285312553173,0.3896544406890093,0.32211813649289495,0.36571229921628184,0.49495000521732374,0.35908297631319513,0.2946768013906436,0.549633871017385
410,1456704056558447,0.3044977658187233,0.38029646943196016,0.3159651212906225,0.3626003679988063,0.47325744100994493,0.3507570229917992,0.2868347068074316,0.5724399066886858
411,1456704056558447,0.29682067349831776,0.37137154625848723,0.31086110311668025,0.36134186368706117,0.4531769360224376,0.3426462527539637,0.2785831957925214,0.592600066779349
412,1456704056564453,0.2886691238765308,0.3630596863752497,0.30687611537795334,0.36198011191764295,0.4350975755439302,0.3349562185126977,0.2700403372315717,0.6097224400261553
413,1456704056564453,0.2801196895876277,0.35552805620782857,0.3040539348500157,0.3645202869678626,0.4193547675590356,0.3278795731547757,0.2613293390243519,0.6234622738269316
414,1456704056580450,0.27124814813894815,0.34892624281335455,0.30241145222170296,0.3689278388387472,0.4062236492804892,0.32159012084101896,0.2525787547589844,0.6335340305430696
415,1456704056580450,0.2621298990639737,0.34338193896238317,0.30193853164983825,0.3751277331829599,0.3959138128043784,0.31623765269287046,0.24392250763138762,0.6397218427341981
416,1456704056582450,0.25284045374602293,0.3389971997554226,0.3025983949983994,0.38300463785655653,0.38856534149440575,0.3119437567159931,0.23549958144009406,0.64188769632477
417,1456704056582450,0.24345582336699678,0.335845390887083,0.3043285847561934,0.39240417820688905,0.3842461728527235,0.30879872429480393,0.22745324808673498,0.6399767880439736
418,1456704056595464,0.23405265579666654,0.33396891361890574,0.3070425557239469,0.40313536335785094,0.38295084797685264,0.3068596046047951,0.21992974441753657,0.6340197274146054
419,1456704056595464,0.22470802763556122,0.333377767175547,0.31063192015429003,0.41497424636167063,0.38460074740488237,0.3061493978167543,0.2130763789050804,0.6241315125146026
420,1456704056602462,0.21549886339268698,0.3340489949550443,0.31496933732167365,0.4276688223642434,0.3890459312094127,0.3066573353063211,0.20703911449255688,0.6105074358128494
421,1456704056602462,0.20650101016341124,0.33592704875024404,0.31991200588062246,0.4409450966945056,0.3960686863968008,0.3083401683113014,0.2019597169883556,0.5934162619037273
422,1456704056617976,0.19778803739591555,0.3389250865122227,0.32530568514732994,0.45451417567758173,0.40538883588382374,0.3111243683539726,0.19797258367739193,0.5731911736913862
423,1456704056617976,0.18942986076693444,0.34292718971327457,0.33098913569869925,0.4680801571798614,0.41667079277600233,0.31490913042888224,0.1952013869176739,0.5502190901494368
424,1456704056623976,0.18149130571673994,0.34779144972514064,0.33679883082174056,0.4813485358832365,0.4295322662658348,0.3195700640402361,0.19375568060219528,0.5249289866521002
425,1456704056623976,0.1740307265340987,0.3533538408382093,0.3425737589712073,0.4940347958496374,0.44355444791239174,0.32496345339192995,0.19372761538592959,0.49777979675819056
426,1456704056640488,0.16709878576192141,0.35943278240284854,0.3481601332061529,0.5058728432116752,0.45829343077448714,0.3309309617282323,0.19518889397111538,0.4692483778676521
427,1456704056640488,0.16073748429569767,0.36583429209220725,0.3534158536944701,0.5166229354753207,0.4732925430899689,0.3373046477256323,0.19818808034896687,0.43981792319874535
428,1456704056642484,0.1549795150021486,0.37235762888148377,0.358214606671887,0.5260787841021266,0.48809521857599547,0.34391215379284534,0.20274836139134433,0.40996711579414097
429,1456704056642484,0.14984798695558402,0.3788013004649171,0.3624494879438397,0.5340735312963235,0.5022579779870581,0.3505819133609172,0.2088658418274791,0.380160242498079
430,1456704056654484,0.14535653414145064,0.3849692642692483,0.3660360044379615,0.5404843260160754,0.515363063033724,0.35714821200025215,0.21650842847766447,0.350838413736449
431,1456704056654484,0.14150978837158545,0.3906771004353442,0.368914267922473,0.5452352619010674,0.5270302527262423,0.3634559346281764,0.2256153272093644,0.3224119748339853
432,1456704056661490,0.13830416807094628,0.3957579031664082,0.37105019527284927,0.5482985072243032,0.5369274062247698,0.3693648338490888,0.23609714507970186,0.29525415005437267
433,1456704056661490,0.13572891823444228,0.40006764166339587,0.37243559305910395,0.549693545839368,0.5447793037000692,0.37475315363971046,0.24783656793047015,0.2696959242573594
434,1456704056677525,0.13376733464223067,0.4034897833832199,0.3730871177588063,0.5494845320049407,0.5503743917148757,0.3795204449341455,0.2606895694485369,0.24602213324205227
435,1456704056677525,0.13239811240325236,0.4059390317701651,0.3730442250349675,0.5477758334483228,0.553569099810887,0.38358943270556206,0.274487098656137,0.22446870801839075
436,1456704056683491,0.13159676519387487,0.40736408404869906,0.37236631033749956,0.5447059167025063,0.5542895111188616,0.38690684895025756,0.2890371943751731,0.2052210082838811
437,1456704056683491,0.1313370605972869,0.4077493479270476,0.371129278264774,0.5404398307209936,0.5525303540572827,0.38944323046300433,0.30412749884317847,0.18841318620681025
438,1456704056700492,0.13159240904416108,0.40711556859034775,0.3694217649708486,0.5351606522307066,0.5483514943231141,0.39119177632797064,0.3195281901738089,0.17412853572841094
439,1456704056700492,0.1323371326743507,0.405519317890302,0.3673412013425266,0.5290603401483479,0.5418722723738886,0.39216643804976126,0.33499540555055274,0.16240079385493114
440,1456704056702486,0.13354753105841538,0.40305130085406615,0.36498987469061395,0.5223304926548106,0.533264117588198,0.39239945337755605,0.35027525378289187,0.15321635825104582
441,1456704056702486,0.13520266194898703,0.3998334577398717,0.36247113684050647,0.5151535093343774,0.522741905786035,0.39193853264952433,0.36510849892927005,0.14651736592188325
442,1456704056723001,0.13728477528220473,0.3960148924699108,0.3598859024144521,0.507694631586823,0.5105545434525964,0.39084388070648374,0.3792359403158411,0.14220554623922488
443,1456704056723001,0.13977937330880366,0.3917667334590009,0.3573295586613618,0.5000952682959321,0.4969752542383936,0.3891852092443007,0.3924044354358053,0.14014672915805848
444,1456704056729002,0.14267490304029293,0.387276109934173,0.354889363168401,0.4924679245585663,0.48229199696848474,0.3870388727977395,0.40437342696448875,0.14017586662465228
445,1456704056729002,0.1459621085491119,0.3827394849583721,0.3526423561136981,0.48489295682995637,0.46679836451662365,0.3844852362117576,0.4149217548171652,0.14210241462010914
446,1456704056737544,0.14963308323729357,0.37835561922479954,0.3506537789573812,0.47741727914478393,0.4507852159818535,0.3816063400141059,0.42385446467478055,0.14571591835229328
447,1456704056737544,0.15368007331852562,0.37431845378087236,0.34897597812529313,0.47005503210037997,0.4345331991447959,0.3784838792763122,0.43100926359074054,0.1507916379287896
448,1456704056743513,0.15809409615090136,0.37081019932070064,0.34764777133790986,0.4627901007975154,0.418306245783066,0.37519747315785595,0.43626222017969907,0.15709605091312615
449,1456704056743513,0.16286344974131023,0.36799490370813925,0.34669425152746275,0.4555802477044574,0.4023460808416593,0.37182318904036,0.43953227816663837,0.16439207870399214
450,1456704056760545,0.16797220069775937,0.36601273960613767,0.3461269946644068,0.4483625298331634,0.38686777336912304,0.36843229090444063,0.4407841822022226,0.17244390421931913
451,1456704056760545,0.17339874414892756,0.36497521157066865,0.34594462730335046,0.4410596008518993,0.3720563567266152,0.36509019713982105,0.4400295347606876,0.181021273537919
452,1456704056762509,0.1791145270599379,0.3649614245859972,0.34613369551964146,0.4335864481568049,0.35806453972425484,0.36185565615907456,0.4373259038839876,0.1899032032855557
453,1456704056762509,0.1850830151722105,0.36601548909561654,0.34666975649024756,0.42585708137314215,0.3450115080498398,0.3587801730677446,0.4327741141268337,0.19888104956087885
454,1456704056773510,0.1912589692970288,0.36814507814280323,0.3475185988243724,0.41779069822249687,0.332982779455443,0.35590773080904026,0.42651399527687467,0.2077609316438441
455,1456704056773510,0.19758808759208343,0.3713211165285779,0.34863750346403505,0.4093169342822227,0.32203103958361573,0.3532748301766138,0.41871891934109623,0.21636554393523622
456,1456704056783510,0.20400706792426235,0.3754785752654215,0.34997648005321363,0.4003799410665044,0.3121778590792356,0.3509108253573505,0.40958947203770746,0.22453543131267417
457,1456704056783510,0.21044413888342497,0.380518361150131,0.35147943873667536,0.3909411820221003,0.3034161760721909,0.3488384722933707,0.39934661453871,0.23212983752209418
458,1456704056797546,0.21682008945294992,0.3863103131684125,0.3530852839760431,0.38098095349446476,0.29571341314183963,0.3470745656982979,0.3882246861104385,0.23902724989336752
459,1456704056797546,0.2230497956239329,0.3926973190248021,0.35472895569505575,0.3704987302864724,0.28901508406400434,0.34563054539485605,0.37646456027448233,0.24512575227325162
460,1456704056803516,0.22904420533301248,0.39950053045597883,0.35634248577444494,0.3595125148452147,0.2832487419315449,0.3445130048326935,0.36430719768760983,0.2503432711211645
461,1456704056803516,0.2347127094007163,0.4065255924623595,0.3578561580041414,0.3480574273956475,0.27832812799988343,0.3437240984114545,0.3519877596427322,0.25461777000808367
462,1456704056821066,0.23996580114160185,0.41356972946145293,0.359199844800667,0.3361837930560235,0.2741573863063388,0.3432618777510295,0.33973038049798016,0.2579074203689867
463,1456704056821066,0.2447179152254806,0.4204294615141512,0.36030455834075653,0.3239549575084306,0.27063520193995266,0.34312057871521245,0.32774365228685276,0.2601907465882932
464,1456704056823060,0.24889033967088992,0.42690865137301676,0.36110421553323563,0.311445009811669,0.26765871021713444,0.3432908479126054,0.3162168406170191,0.2614667042119789
465,1456704056823060,0.2524141094618493,0.4328265034841695,0.36153757896766764,0.29873652639061243,0.2651270297664081,0.3437598642399219,0.3053168209441606,0.2617546038469597
466,1456704056833934,0.2552328042486598,0.43802505970426475,0.3615502934349149,0.2859183872889821,0.2629443024519627,0.3445113009225256,0.29518570527702753,0.26109375527514067
467,1456704056833934,0.2573051732447759,0.44237568817953477,0.3610968940595999,0.2730836704976703,0.26102216772599185,0.34552509897323735,0.2859391294769697,0.25954269278252096
468,1456704056848934,0.2586074937370235,0.4457840728462332,0.36014263989149864,0.26032761761485607,0.25928164324019276,0.34677707152512777,0.27766518499034154,0.25717786079228383
469,1456704056848934,0.2591355442536752,0.4481933072876859,0.35866504057684645,0.2477456805676921,0.2576544181340424,0.3482384025611154,0.270423990885066,0.25409168637000923
470,1456704056858015,0.25890605750384627,0.44958488173624905,0.35665497423322123,0.23543167864271178,0.2560835893378541,0.3498751306699896,0.2642479029698952,0.25039003305321567
471,1456704056858015,0.2579575289355764,0.4499775943982034,0.3541173105095676,0.22347609288976594,0.25452388464160436,0.35164772579775516,0.25914234888457793,0.2461891047173156
472,1456704056863928,0.25635029542699433,0.44942465373605395,0.35107095519607834,0.21196450010820178,0.25294141657980096,0.3535108783034038,0.2550872670128854,0.24161193368044603
473,1456704056863928,0.25416584399943687,0.4480093961703635,0.34754825774369125,0.2009761207966065,0.2513130011586113,0.3554136146058627,0.25203911347215713,0.23678463211533612
474,1456704056880914,0.2515053354000965,0.44584009141033315,0.34359379211711655,0.19058244659016454,0.24962507005773266,0.35729982084688483,0.24993338528825473,0.23183260355110227
475,1456704056880914,0.24848732778712349,0.4430442706537254,0.33926260378507805,0.1808459304747361,0.2478722207266251,0.35910919810884817,0.24868759365127038,0.2268769012615174
476,1456704056882734,0.2452446903120041,0.4397629430888801,0.33461805887917123,0.17181875579386507,0.2460554859237611,0.36077860864286376,0.2482046105654391,0.22203088885416927
477,1456704056882734,0.24192074112219375,0.43614499726893274,0.3297294198033079,0.1635417282083862,0.24418044515247206,0.3622437253267549,0.2483763013610679,0.21739731750759309
478,1456704056895010,0.23866473150352285,0.43234201758567886,0.32466923328835756,0.15604334738690953,0.24225532583490086,0.36344087687840565,0.24908734519277853,0.2130658952488808
479,1456704056895010,0.23562688709025068,0.42850366928034767,0.3195105897460649,0.14933911470991684,0.2402892427971383,0.36430898052526123,0.2502191431964483,0.20911138897056197
480,1456704056903959,0.23295326439357303,0.424773717034977,0.3143243202692642,0.14343112849099904,0.23829070324702784,0.3647914583130658,0.2516537220829706,0.20559226737380307
481,1456704056903959,0.23078067766505192,0.42128666368370127,0.3091762395575474,0.13830801428483822,0.23626647109654583,0.36483804340511966,0.2532775529659949,0.2025498664116906
482,1456704056918248,0.22923191702929974,0.41816495504570794,0.30412459110453516,0.1339452306946208,0.23422084644116598,0.36440640632427745,0.2549852118234248,0.2000080469634202
483,1456704056918248,0.22841143452611073,0.4155167001574832,0.29921786779566967,0.1303057732821949,0.23215537196683184,0.3634635652159062,0.25668280359027684,0.19797332018887362
484,1456704056924250,0.22840163404156075,0.41343387925624897,0.2944931527981879,0.12734127053849104,0.2300689282538401,0.3619870758690404,0.25829105716651674,0.19643543113098785
485,1456704056924250,0.229259874076369,0.4119910275842467,0.2899750696782359,0.12499343489595661,0.22795813493139955,0.359966012910348,0.2597479794371479,0.19536840320897286
486,1456704056941094,0.23101627728312787,0.411244386394335,0.2856753756689733,0.12319580812839735,0.22581794990990192,0.35740174651400647,0.26101093918321466,0.19473204738236657
487,1456704056941094,0.23367242196443452,0.4112315102189081,0.28159319728599697,0.12187572783561904,0.2236423640791337,0.35430849836840816,0.2620580426451009,0.19447392865261406
488,1456704056942758,0.2372009565079243,0.4119713092087573,0.27771589323004203,0.12095643607810644,0.22142511768138884,0.3507136469759002,0.2628886718813557,0.19453175998933403
489,1456704056942758,0.24154613407184353,0.4134644831170231,0.27402051752827744,0.12035924650523935,0.2191603953548916,0.3466577553998684,0.2635230973327195,0.19483615949802555
490,1456704056953761,0.24662522527366423,0.4156942816725988,0.2704758248339136,0.12000568175381439,0.216843472547402,0.3421943040362441,0.2640011454960377,0.19531366276803308
491,1456704056953761,0.2523307381698682,0.41862752284522764,0.267044705261482,0.1198194932988784,0.21447129162484896,0.33738910958643403,0.26437997555018683,0.19588983878624233
492,1456704056963760,0.2585333578794468,0.4222158153848073,0.26368687560426424,0.1197284849012106,0.21204295519080038,0.3323193945447151,0.26473106864894413,0.19649233150861198
493,1456704056963760,0.26508551015523346,0.4263969503210064,0.26036161496952676,0.11966607713884989,0.20956013562595882,0.3270724569401674,0.26513656729761975,0.19705365264689073
494,1456704056977761,0.27182544781363543,0.431096441542235,0.2570303355427292,0.11957257233728072,0.20702740184388266,0.3217439012511693,0.26568514673334137,0.19751358150562093
495,1456704056977761,0.2785817496089378,0.4362292081002691,0.2536588204786604,0.11939610579726953,0.20445245608585963,0.31643542937037894,0.2664676554368775,0.19782107182007658
496,1456704056983761,0.2851781063684892,0.44170138857814595,0.25021901739998914,0.11909329530890687,0.20184626735608147,0.3112522350105138,0.26757279485587654,0.19793561342026542
497,1456704056983761,0.2914382514050657,0.4474122477696321,0.2466903247674422,0.11862961658144361,0.1992230915451379,0.3063000795856191,0.26908309420631776,0.1978280420340376
498,1456704057007761,0.29719087510540454,0.45325609575299436,0.24306034364599288,0.1179795334035682,0.19660037781196796,0.30168214895611994,0.2710713813576739,0.19748082802192637
499,1456704057007761,0.3022743523540819,0.4591241315760789,0.23932509708978628,0.11712640435946749,0.19399856837075777,0.2974958029606508,0.2735978779650996,0.1968879029589809
500,1456704057009761,0.30654111013558705,0.46490616502020465,0.23548875485446252,0.1160621813814703,0.1914407979607734,0.29382934466453714,0.2767079744783854,0.19605410434135612
501,1456704057009761,0.30986147466397945,0.47049222748902,0.23156294696219348,0.11478691427838857,0.18895248942545617,0.29075896291889936,0.2804306776843143,0.194994332029503
502,1456704057013762,0.31212687007825496,0.4757741150168657,0.22756579410997024,0.11330808115065687,0.18656083313068106,0.28834603175486706,0.284777677224519,0.19373250961644561
503,1456704057013762,0.31325229497237783,0.4806469070333307,0.22352080580321035,0.11163977517858349,0.18429414532533475,0.28663496177619346,0.2897429601612311,0.19230042811390463
504,1456704057023772,0.3131780587538169,0.48501049300335325,0.21945579111381158,0.10980178791401626,0.1821811265708851,0.28565177853101115,0.29530292304505384,0.1907365256340825
505,1456704057023772,0.3118707929565673,0.4887711247811272,0.21540190063526976,0.10781863193891866,0.18025007005428684,0.28540355474532475,0.30141697626446406,0.18908463627840935
506,1456704057037778,0.30932376365366876,0.49184299543563786,0.21139288036873657,0.10571854016354287,0.17852808219223618,0.28587875966306353,0.30802867385186783,0.18739272892137585
507,1456704057037778,0.30555651927303756,0.494149830790926,0.20746457357957573,0.1035324693812682,0.17704036972653722,0.2870485192209271,0.3150674112834811,0.1857116479776224
508,1456704057043779,0.3006139242058176,0.4956264732643993,0.20365466197238374,0.10129312699687866,0.17580962701940406,0.2888687103194287,0.32245071632940203,0.18409386095173152
509,1456704057043779,0.29456464582362935,0.4962204389268599,0.2000026005336738,0.09903403359984317,0.1748555365240159,0.29128274683923416,0.3300871242211755,0.18259221735381875
510,1456704057060779,0.2874991681352902,0.4958934351110618,0.19654967421451505,0.09678863037016613,0.17419438321826552,0.2942248658334382,0.3378795835493042,0.1812587347866663
511,1456704057060779,0.2795273960964444,0.4946228240105179,0.19333908999619645,0.0945894403241112,0.17383878156450785,0.29762370118479337,0.3457292873432637,0.18014344148329778
512,1456704057062780,0.27077590278223035,0.4924029893786527,0.19041601592247964,0.0924672961224169,0.17379751466970322,0.3014059375913793,0.3535397702144063,0.17929330464292026
513,1456704057062780,0.2613848729864574,0.48924651276691294,0.187827486438288,0.09045065180500046,0.174075481053999,0.3054998543166221,0.3612210609018082,0.17875125649889947
514,1456704057074815,0.25150481354404475,0.48518502289509546,0.18562210407995108,0.08856499777343058,0.17467373207338746,0.3098385806783114,0.36869363304169406,0.17855530623392663
515,1456704057074815,0.2412931204513958,0.4802695719809556,0.18384948192188424,0.08683239529552453,0.17558956788712912,0.3143628906085808,0.3758918644215867,0.17873770849540352
516,1456704057083781,0.23091060048855783,0.474570416727704,0.182559398825091,0.08527113882709934,0.17681665141269085,0.31902337051446555,0.38276671295339276,0.17932415213025327
517,1456704057083781,0.22051803233372885,0.46817612652606677,0.18180068080902698,0.08389554459936716,0.1783451063676994,0.3237818195758058,0.389287356133904,0.18033293420846994
518,1456704057098027,0.21027282314271226,0.4611919955004269,0.1816198582910762,0.0827158568624392,0.18016158689090725,0.3286117964769386,0.39544160959732866,0.18177409770769204
519,1456704057098027,0.2003257886954315,0.45373778561236416,0.1820596609674624,0.08173826196306233,0.18224932972990082,0.3334983040824786,0.40123502641373143,0.1836485434623334
520,1456704057103983,0.19081808086272636,0.4459448608364337,0.18315739944442255,0.08096500432063705,0.18458821251249297,0.3384366823766957,0.40668868864024504,0.18594717374033107
521,1456704057103983,0.1818783124061985,0.43795278646897556,0.1849432622336157,0.0803946029166365,0.1871548427809057,0.34343084349671604,0.4118358405244672,0.1886501647640399
522,1456704057121238,0.17361996558021014,0.42990548255239114,0.18743854727799966,0.08002216689351041,0.1899226988229094,0.3484910236881378,0.41671764883714935,0.19172647898827377
523,1456704057121238,0.16613918818599366,0.421947051684435,0.19065385928802053,0.07983980234210444,0.19286233675969713,0.353631242127891,0.4213784662828648,0.19513371502806817
524,1456704057123239,0.15951306929514383,0.414217436697637,0.19458733652232355,0.0798370913826102,0.19594166671057994,0.35886664897404613,0.4258610022772661,0.19881836684669152
525,1456704057123239,0.1537984597421783,0.40684808183400595,0.19922300971132445,0.08000161263209121,0.19912628496938614,0.364210926808475,0.43020178483355476,0.20271653362051964
526,1456704057134327,0.14903137468140018,0.39995777356141665,0.20452942262331633,0.08031946339551288,0.2023798357638806,0.3696738923175785,0.4344272461562913,0.20675509010084409
527,1456704057134327,0.14522699111985882,0.39364883965298364,0.21045864795908456,0.08077574377823313,0.20566437433007023,0.3752594289824151,0.4385506927725678,0.21085329601320063
528,1456704057150191,0.14238022840368028,0.3880038889391032,0.2169458180934535,0.08135497371410011,0.20894071619074633,0.38096385911305813,0.44257033422518594,0.2149247941758845
529,1456704057150191,0.14046687177977799,0.38308326508758656,0.22390926689043206,0.08204143079616306,0.2121687795773398,0.3867748310903833,0.4464684519610932,0.21887992107578116
530,1456704057158192,0.1394451738599887,0.37892335601101895,0.23125135088315726,0.0828194112336001,0.21530794647181695,0.392670758583436,0.45021170507726865,0.2226282321971079
531,1456704057158192,0.1392578548064563,0.3755358472367087,0.2388599867938786,0.08367342378763061,0.21831747146238895,0.39862080728061355,0.45375249680517704,0.22608113169857433
532,1456704057165192,0.13983442006097777,0.37290793914911374,0.24661090863087765,0.0845883290161801,0.22115695392719067,0.40458538627480595,0.4570312571842601,0.22915449403493798
533,1456704057165192,0.1410937150958672,0.37100347589094007,0.254370609154277,0.08554943657668083,0.22378686690916408,0.4105170732387615,0.45997943200201574,0.23177117177314502
534,1456704057179193,0.1429466324223438,0.3697648745916969,0.2619998819933834,0.08654257169345808,0.22616911880863177,0.41636188876974534,0.46252292717071214,0.23386329769752326
535,1456704057179193,0.14529888028295346,0.3691157093629633,0.2693578206823855,0.08755411709485862,0.22826761817545194,0.42206082967946135,0.464585763955548,0.23537430882474694
536,1456704057187193,0.14805372340976633,0.36896379412254204,0.2763060663078401,0.08857103017747492,0.2300488160590273,0.4275515632723006,0.4660937452287586,0.23626063911011322
537,1456704057187193,0.1511146165890409,0.36920461341280064,0.2827130409717224,0.08958083094566636,0.231482213801093,0.4327701719589388,0.46697798424481124,0.23649303946505448
538,1456704057194193,0.15438766582267457,0.36972496423893336,0.28845788081074697,0.0905715582351172,0.23254084571056335,0.437652831000651,0.4671781863484817,0.2360574869789989
539,1456704057194193,0.15778386232169989,0.3704066901078129,0.2934338086778746,0.09153170046869993,0.23320176665148426,0.44213732160998925,0.4666456041666574,0.2349556443550149
540,1456704057203194,0.16122104125855852,0.37113040464601244,0.2975507606828552,0.09245011883547659,0.23344658252592346,0.44616433557110025,0.46534561252267986,0.2332048333930977
541,1456704057203194,0.16462552536808808,0.3717791069663219,0.30073717533501526,0.09331598837638821,0.23326205288975202,0.4496785938681687,0.46325986491913024,0.23083750081090454
542,1456704057217709,0.16793342282405432,0.3722415778306681,0.30294094131322935,0.09411878071297994,0.23264077183734316,0.45262984042806576,0.46038799471465375,0.2279001807785941
543,1456704057217709,0.1710915535180835,0.37241542225390845,0.30412956996797785,0.09484830175519127,0.23158190183281074,0.4549737649982206,0.45674881661428135,0.22445198721449303
544,1456704057224710,0.1740579792248777,0.3722096135964939,0.30428970857512744,0.09549478378512216,0.23009190559020806,0.4566728758215363,0.45238097920894743,0.220562694114244
545,1456704057224710,0.17680212147382499,0.3715464211887569,0.30342613557360354,0.09604901843963876,0.22818520039466936,0.4576973107653568,0.4473430229574643,0.216310486551772
546,1456704057239231,0.1793044722777072,0.3703626759112374,0.3015603817963438,0.09650250799657561,0.22588464453071533,0.4580255525559586,0.441712800617678,0.21177948839220667
547,1456704057239231,0.18155593012735594,0.3686104230464778,0.29872911314758843,0.0968476096376127,0.22322175566796554,0.4576449949831934,0.43558620435361617,0.20705718611083848
548,1456704057247358,0.18355681227490764,0.36625708475882046,0.29498239936419546,0.09707765316243352,0.22023656933489086,0.4565522965400089,0.42907512449350677,0.2022318649050058
549,1456704057247358,0.18531559507759013,0.363285277130584,0.2903819783405878,0.09718702542388857,0.21697708468252536,0.45475346744825657,0.42230457472891175,0.19739015878620858
550,1456704057254425,0.1868474228160574,0.35969240852487283,0.2849995966958234,0.09717122860474624,0.21349830356660845,0.4522636627433338,0.41540898210970983,0.19261479950267202
551,1456704057254425,0.18817241996743295,0.355490151819017,0.27891546341420903,0.09702692814190711,0.20986092012336524,0.44910668133790654,0.408527740871818,0.18798263230608786
552,1456704057264227,0.18931385608678064,0.35070384374945623,0.2722168091637103,0.09675200710659432,0.20612974458229505,0.44531419481764406,0.4018002266035472,0.18356294849484509
553,1456704057264227,0.19029624065188425,0.34537182436280545,0.26499652086449177,0.09634563791623474,0.20237194876837436,0.44092476130686964,0.3953605327282883,0.1794161671753471
554,1456704057278348,0.19114344909220518,0.3395446987673547,0.2573518314427737,0.0958083717629061,0.198655212004573,0.43598271728668636,0.38933221691949216,0.17559288376367568
555,1456704057278348,0.19187698955978819,0.33328448635900665,0.24938307859703288,0.09514223531257483,0.1950458374393027,0.43053706537936814,0.38382333750454734,0.17213328778626882
556,1456704057285354,0.19251451487841853,0.32666360846715703,0.24119257440170183,0.09435081794241641,0.1916069098303191,0.42464047646627934,0.3789220348096978,0.16906693500918538
557,1456704057285354,0.19306866970734193,0.3197636492490438,0.23288362495724504,0.09343933314677988,0.18839657465364168,0.418348498431109,0.3746928819085631,0.16641284259438022
558,1456704057300353,0.19354633854082703,0.3126738260252859,0.2245597071846399,0.09241464308003161,0.18546652090296187,0.41171901335356015,0.3711741937293103,0.16417986672899096
559,1456704057300353,0.1939483252414727,0.3054891429153898,0.21632376750354582,0.09128524194654603,0.18286073390443658,0.40481192132023275,0.3683764423445974,0.16236732009232344
560,1456704057307354,0.19426945358632516,0.2983082608919445,0.20827757145916392,0.09006119782449896,0.1806145543197007,0.3976889742236139,0.3662818844544318,0.16096578718163826
561,1456704057307354,0.19449903749877934,0.2912311611282612,0.2005210136082483,0.08875405071199233,0.17875405159225888,0.3904136541990917,0.3648454630691928,0.15995809718886259
562,1456704057314236,0.19462163881055095,0.28435668552299337,0.1931513021641832,0.08737665984649338,0.17729570436551537,0.38305098705029766,0.36399698794834745,0.15932041894403776
563,1456704057314236,0.19461802268758885,0.2777800197571437,0.18626196830365457,0.08594299280551022,0.17624637338541924,0.3756671883819767,0.3636445238054443,0.15902345054017897
564,1456704057324187,0.19446624034663887,0.27159016984327555,0.17994170106143895,0.0844678562446761,0.17560354811246973,0.36832905742584277,0.3636788312538136,0.15903368293018014
565,1456704057324187,0.194142798507234,0.26586749365394374,0.17427304644552702,0.08296657972784664,0.17535584807280633,0.3611030735390064,0.3639786222349241,0.1593147171474758
566,1456704057338349,0.1936238923715097,0.26068137746325376,0.16933102185988594,0.08145467336465008,0.1754837669314458,0.35405421371264073,0.36441630766641436,0.1598286077219429
567,1456704057338349,0.19288667779732463,0.25608817019922575,0.16518169893195828,0.07994748258956923,0.17596065638660252,0.34724456878780247,0.36486383269373046,0.1605371912646398
568,1456704057345150,0.19191054624841927,0.2521294911940684,0.1618808158060448,0.07845985931231579,0.17675394833715444,0.34073186360026086,0.36519814155364505,0.16140334208048346
569,1456704057345150,0.19067835075154962,0.24883101506943778,0.15947249310844697,0.0770058615737328,0.17782660166085862,0.33456798633248364,0.3653058346078171,0.1623920852265006
570,1456704057360150,0.18917752079598027,0.24620181944320974,0.15798813509021709,0.07559848806775904,0.17913873446556106,0.32879763129922523,0.36508669875519223,0.16347150389273613
571,1456704057360150,0.18740100652389735,0.24423436239522303,0.15744559142707532,0.07424945074983591,0.18064936780616855,0.32345716899645194,0.36445597847665984,0.16461340504253175
572,1456704057367150,0.18534800510565203,0.24290513562526486,0.1578486368588276,0.07296898680942714,0.18231816956662023,0.3185738606793989,0.36334543587181517,0.16579374196507196
573,1456704057367150,0.18302443608209246,0.24217600858017646,0.15918680073725933,0.0717657088649456,0.18410705555255819,0.31416550989689007,0.3617033694934384,0.16699281512200775
574,1456704057383342,0.18044314571171755,0.24199623266483544,0.16143555078787103,0.07064648929691648,0.1859814898769805,0.31024059139415294,0.35949382402841135,0.1681952724906543
575,1456704057383342,0.17762383617057642,0.24230501736640495,0.16455680751115995,0.06961637369261948,0.1879113446976878,0.30679884137329255,0.3566952526655994,0.1693899156764804
576,1456704057385349,0.17459273435418943,0.24303453222735974,0.1684997410183504,0.06867852242676695,0.1898712387357067,0.30383225133065717,0.3532989033688132,0.17056931139734527
577,1456704057385349,0.17138203637199803,0.24411313705273557,0.17320178387692797,0.06783418723754384,0.191840358578876,0.30132638059988454,0.34930718770654745,0.17172922674045624
578,1456704057398303,0.1680291850893121,0.2454686032017876,0.17858978209342316,0.06708273546242004,0.19380184498386635,0.2992618796684984,0.3447322561533405,0.1728679432015967
579,1456704057398303,0.1645760504491085,0.24703107447237393,0.18458120167303793,0.06642173341054525,0.19574187726535006,0.2976160917290889,0.33959494813333185,0.17398553273341263
580,1456704057404312,0.16106807820883742,0.24873554360577887,0.19108531476678675,0.06584709194062739,0.19764860980775956,0.2963645807613268,0.3339242118113652,0.17508318001603376
581,1456704057404312,0.15755345631878126,0.2505236907377698,0.19800431379161507,0.06535326520847883,0.19951111075217262,0.29548243553983056,0.32775700822544857,0.17616261146954065
582,1456704057427857,0.15408232965958873,0.25234501813995003,0.20523434373151975,0.06493348308728608,0.20131843064521066,0.29494522944897944,0.32113864099025896,0.17722565789877795
583,1456704057427857,0.15070607772930186,0.2541572922145425,0.2126664904101256,0.06457999429124146,0.20305889849281297,0.29472957209641465,0.3141233926127163,0.1782739469864666
584,1456704057429858,0.14747665404668844,0.25592636326585777,0.22018779776522418,0.06428430242886048,0.2047197142328727,0.29481325731597857,0.30677529557424177,0.1793087007488181
585,1456704057429858,0.14444596758344455,0.2576254832354283,0.22768239705002183,0.06403738686291292,0.20628688010994603,0.2951750724259531,0.29916881638340204,0.1803306037672956
586,1456704057442567,0.14166526602431528,0.2592342767350361,0.23503281670530973,0.0638299081318298,0.2077454798944614,0.29579436433946193,0.2913891976930131,0.1813397093783504
587,1456704057442567,0.1391844649262561,0.2607375322175929,0.24212151495346837,0.06365240139616068,0.20908027182589828,0.2966504570023417,0.2835322168845334,0.18233535935844067
588,1456704057444363,0.13705136688135458,0.26212397065608234,0.2488326481683199,0.06349546290436708,0.21027652040048386,0.29772200273327276,0.2757031968678025,0.18331610440803053
589,1456704057444363,0.13531073591203874,0.26338512608790177,0.2550540616593711,0.06334993638315656,0.2113209689931255,0.29898634948830977,0.26801522424976787,0.1842796250568465
590,1456704057458363,0.1340032274476372,0.26451443920345297,0.2606794686452062,0.06320710870972204,0.21220285401256467,0.30041901773101837,0.2605866424886227,0.1852226616429864
591,1456704057458363,0.13316421146089175,0.2655066269244686,0.26561076924048715,0.06305892480495565,0.21291487318438448,0.3019933853652684,0.2535379625732092,0.18614096401709287
592,1456704057463365,0.13282255869181325,0.2663573569129022,0.26976045036328156,0.06289822762307702,0.21345403295078508,0.30368065874973205,0.24698837716649646,0.18702926632349218
593,1456704057463365,0.1329994818630814,0.26706323183660063,0.27305399108492806,0.06271902007111368,0.2138223033434434,0.3054501613972007,0.24105209213443862,0.18788128449298774
594,1456704057479365,0.13370752820533807,0.26762207144000316,0.2754321705332431,0.06251673443156404,0.21402700212879033,0.3072699153728569,0.23583470417396687,0.18868973181000595
595,1456704057479365,0.1349498053914668,0.2680334642903822,0.276853141699008,0.06228848557008211,0.21408082739323564,0.3091074461076786,0.23142984797273994,0.1894463554039847
596,1456704057487365,0.1367194981822032,0.2682995399671083,0.2772941098764007,0.0620332803676197,0.21400147904189243,0.31093072555327744,0.2279163081189441,0.19014200914320667
597,1456704057487365,0.13899970617934662,0.26842588424242864,0.2767524560881993,0.06175215838343044,0.21381085803739688,0.3127091773418538,0.22535574509013964,0.19076678579072456
598,1456704057502568,0.14176360677066058,0.268422486139156,0.2752461766817972,0.06144824553801938,0.2135338894947425,0.3144146808389238,0.2237911311402682,0.19131022568313738
599,1456704057502568,0.14497492147703678,0.2683045719862685,0.27281355575298455,0.06112670987283492,0.21319706344681671,0.31602251733254505,0.22324593912568277,0.19176160166732797
600,1456704057505366,0.14858864052323817,0.26809315772237097,0.2695120335522406,0.06079461379462504,0.21282681794860403,0.31751220719755924,0.2237240773964172,0.19211026106698653
601,1456704057505366,0.15255194505723485,0.2678151532384554,0.26541628330116684,0.06046066141579618,0.21244790119338122,0.3188681970666706,0.22521051566143857,0.19234599606562688
602,1456704057518155,0.15680526406425982,0.26750289643243613,0.26061556637265043,0.06013484558611671,0.21208184364729757,0.3200803669847948,0.22767250238189313,0.1924594129831028
603,1456704057518155,0.16128341286094208,0.2671930761473603,0.2552104959291946,0.059828008421475454,0.21174565410038718,0.3211443365603554,0.2310612402136971,0.19244226842351472
604,1456704057525166,0.16591677555523535,0.26692509711682183,0.24930939134900315,0.05955133931911846,0.21145083039233922,0.3220615564356559,0.23531386678277308,0.19228773467247776
605,1456704057525166,0.17063250713008965,0.2667390169419339,0.24302444372502802,0.05931584182948679,0.21120274632627734,0.32283917367285164,0.2403555813615998,0.19199055822607164
606,1456704057540322,0.17535573625347317,0.2666732283664238,0.236467929107864,0.05913180315464975,0.2110004403624498,0.32348965438568644,0.2461017597780974,0.19154708873678844
607,1456704057540322,0.18001074857559213,0.2667620705217811,0.22974869302452117,0.05900829745077945,0.21083679314368264,0.3240301397841333,0.2524599125896266,0.19095517213186583
608,1456704057546990,0.18452213172518972,0.2670335410141917,0.22296909044361732,0.05895274802573662,0.21069904672047468,0.32448151379667906,0.25933137257556027,0.190213911958102
609,1456704057546990,0.18881587573309186,0.26750725647387785,0.2162225134600114,0.058970566023989306,0.21056959268968783,0.32486718042750945,0.2666126516854189,0.1893233098075221
610,1456704057562990,0.19282044116250185,0.2681927787345153,0.2095915837027474,0.05906487550407611,0.21042693709348884,0.3252115870281083,0.2741964821435773,0.18828380735288652
611,1456704057562990,0.1964678189219586,0.2690883938971531,0.20314702955521172,0.05923632722629035,0.2102467348080989,0.3255385729920233,0.2819726358782058,0.1870957689592893
612,1456704057564991,0.19969460498701536,0.27018040951606326,0.19694721487728414,0.0594829972451886,0.2100027848957719,0.32586965567334414,0.28982867375049687,0.18575895492451885
613,1456704057564991,0.20244310462069456,0.27144302281510657,0.19103824679697237,0.05980036412155515,0.20966790637905494,0.3262223849385389,0.2976507920696372,0.18427203409948856
614,1456704057578253,0.2046624707233626,0.2728388028320791,0.18545457093370796,0.06018136110254764,0.20921466914376555,0.326608913488171,0.3053249125466567,0.18263217643389423
615,1456704057578253,0.20630987189548408,0.2743198097724992,0.1802199568622487,0.06061650412415446,0.20861601167674176,0.3270349361619157,0.31273812087184194,0.18083476260551962
616,1456704057585254,0.20735167370643787,0.2758293375503132,0.17534877244474986,0.061094098735541766,0.20784581079346418,0.32749912902514533,0.31978051229315757,0.1788732526616169
617,1456704057585254,0.20776459572176983,0.2773042128727519,0.17084743659266113,0.06160052700130135,0.20687947380486787,0.32799316507624887,0.32634745326910747,0.17673925873748741
618,1456704057600254,0.2075367784971856,0.2786775301481245,0.16671593237965562,0.062120610585526606,0.20569461124794455,0.32850231652300005,0.33234221405694675,0.17442285813229125
619,1456704057600254,0.20666867016334664,0.2798816634763354,0.16294926948947697,0.06263804205926621,0.20427182955811082,0.3290065924075617,0.337678868931759,0.17191316313741276
620,1456704057607254,0.20517363444924253,0.28085138266617665,0.15953881449049478,0.06313587515088166,0.2025956633821865,0.32948231263408806,0.342285307912092,0.16919913960654326
621,1456704057607254,0.20307819562250862,0.2815269021916672,0.1564734524258215,0.06359706493633223,0.20065564634925015,0.3299039875497091,0.3461061689154725,0.16627064112756865
622,1456704057623324,0.20042186251513786,0.2818566999351017,0.1537405835269782,0.06400504794219011,0.19844749389322824,0.3302463573051847,0.34910548815674136,0.16311960292633434
623,1456704057623324,0.19725650147647,0.2817999559265504,0.15132697569126488,0.06434434809749061,0.19597433998240363,0.3304864461141657,0.3512688749516333,0.15974132431269186
624,1456704057625358,0.1936452551410487,0.281328484329739,0.14921948606949764,0.06460118799336875,0.19324793302496002,0.33060549661621125,0.352605036124495,0.15613576215030675
625,1456704057625358,0.18966103517871097,0.280428063962089,0.1474056514673013,0.06476407909843523,0.1902896635558475,0.33059065841096097,0.3531465027071599,0.15230875567564892
626,1456704057638336,0.18538464848272307,0.27909910975580554,0.14587414519151815,0.06482436424478069,0.18713128387463035,0.33043630968751875,0.35294945469044886,0.14827310017664036
627,1456704057638336,0.18090263619229008,0.2773566677674622,0.14461510888400206,0.06477669359779198,0.18381520149557448,0.330144901655899,0.3520926002646904,0.14404938443200596
628,1456704057645013,0.17630491062187786,0.27522975906983244,0.14362037939095038,0.06461942849243855,0.18039428183781822,0.32972724509314,0.3506751291003234,0.13966650976528994
629,1456704057645013,0.1716822753424858,0.2727601406549718,0.14288363306148508,0.06435497896750535,0.17693116203906203,0.3292022144262422,0.34881380953614755,0.13516182541509877
630,1456704057660044,0.1671239178676467,0.2700005875329914,0.14240046515547355,0.06399008494034594,0.17349713369450337,0.32859592172851626,0.34663934324735757,0.13058085245771017
631,1456704057660044,0.1627149727181179,0.26701282088461337,0.1421684174842133,0.06353604703609934,0.1701706821460165,0.3279404826854949,0.34429213983752427,0.12597661993458428
632,1456704057667004,0.15853425549225725,0.26386520977296307,0.14218696535734643,0.06300890492097189,0.16703577344862622,0.32727252772455967,0.34191771768648904,0.12140868011777751
633,1456704057667004,0.15465225815716913,0.2606303661095448,0.142457471791091,0.062429553088763585,0.16417997011841132,0.32663160336471175,0.3396619529687127,0.1169418867522499
634,1456704057683010,0.15112947641599636,0.25738274626914,0.14298310823069138,0.06182377757862057,0.16169244526433796,0.3260585837857552,0.337666378132185,0.11264501175603081
635,1456704057683010,0.14801512204762404,0.25419637211476154,0.14376872698223994,0.06122219088438546,0.15966195404849154,0.3255941832953837,0.33606368897781186,0.10858925668390366
636,1456704057685039,0.1453462596113547,0.2511427792732611,0.14482065871892785,0.0606600375553846,0.15817481030266914,0.32527762773209795,0.33497357754332685,0.10484669844852654
637,1456704057685039,0.1431473927913988,0.24828927921585853,0.1461464073047003,0.0601768437159049,0.1573129068595752,0.32514551045743323,0.3344989791141146,0.10148869961910521
638,1456704057698007,0.14143050713132904,0.2456975875880052,0.14775422365771967,0.059815891509113726,0.15715181392900882,0.3252308282332137,0.33472280750798433,0.09858431227732803
639,1456704057698007,0.14019555433226383,0.24342284014183166,0.14965255359246912,0.05962351064994217,0.15775898913474962,0.32556216349560657,0.33570525160373277,0.09619871054553733
640,1456704057705039,0.1394313413319998,0.24151299917599015,0.15184936710857982,0.05964818937539676,0.15919212975830382,0.32616296417671037,0.33748171299652646,0.0943916982900226
641,1456704057705039,0.13911676700524783,0.2400086449896703,0.1543513881229292,0.05993951540241591,0.16149768884295468,0.3270508856000375,0.3400614647428494,0.09321634752210382
642,1456704057720069,0.13922233351097685,0.23894314191982113,0.157163252803454,0.06054696503711298,0.1647095655430653,0.32823719241321037,0.34342709080357287,0.09271782148716948
643,1456704057720069,0.13971185116911272,0.23834316157987082,0.16028662867195886,0.06151856448810611,0.1688479716922022,0.3297262438504608,0.3475347327486484,0.09293242491950089
644,1456704057727043,0.14054425488016856,0.2382295311203589,0.16371932659881241,0.06289945106791643,0.17391847302960073,0.33151508740860536,0.3523151436446048,0.09388691030289444
645,1456704057727043,0.14167545272890428,0.23861834608509871,0.16745443870591614,0.06473036554986754,0.1799112084079063,0.33359317505561864,0.3576755319817108,0.09559805753165616
646,1456704057743080,0.14306013112710214,0.2395222459447748,0.17147954017565367,0.06704611286054306,0.18680030881769114,0.33594221300881916,0.36350215732299096,0.09807253219879358
647,1456704057743080,0.144653447534306,0.24095170736428445,0.17577600313880976,0.06987403588671193,0.19454356463092154,0.3385361664610169,0.3696636048285638,0.10130701130980116
648,1456704057745039,0.1464125533053317,0.24291618727753214,0.18031848627692523,0.0732325541420123,0.20308240458373705,0.34134144872160893,0.37601462554290044,0.10528854608029592
649,1456704057745039,0.14829790149439123,0.24542496081304882,0.1850746773566625,0.07712982364675428,0.21234223725397264,0.34431731617832906,0.38240040180457185,0.10999511540214027
650,1456704057757038,0.15027430147130988,0.24848754075325552,0.190005364044076,0.08156257594031482,0.2222331671795419,0.3474164721977966,0.38866109333404103,0.11539631558275565
651,1456704057757038,0.15231168450519225,0.25211361425921697,0.1950648856549619,0.08651519281519651,0.23265105253332943,0.3505858665649249,0.3946365284180368,0.12145413189762438
652,1456704057766038,0.15438554758217612,0.25631248191945777,0.20020198502495387,0.091959069246904,0.2434788437367848,0.3537676660524327,0.40017090276080747,0.12812374130807958
653,1456704057766038,0.1564770508603444,0.26109204003883685,0.20536105102173202,0.09785230964159124,0.2545881449311492,0.35690036847854567,0.4051173278313284,0.1353543017112999
654,1456704057780040,0.15857276121968256,0.2664574000243341,0.21048372671494933,0.10413979247614305,0.2658409629620379,0.35992003909398257,0.40934205088770675,0.1430896951084421
655,1456704057780040,0.16066406491884144,0.27240926279689415,0.21551085241164822,0.11075362807025715,0.27709163154569383,0.36276165467926297,0.41272818167981057,0.1512692143783374
656,1456704057787112,0.16274631451939858,0.27894215261664573,0.22038470598043505,0.11761402516673698,0.288188912435073,0.36536053246452843,0.4151788179153813,0.15982821160708016
657,1456704057787112,0.16481781527245096,0.2860425843998873,0.22505148641888223,0.12463057237654313,0.29897828433497303,0.36765380193778824,0.41661953750960956,0.16869874602602314
658,1456704057803041,0.16687877567197393,0.2936872186628466,0.22946396045007414,0.1317039271714415,0.3093044392294112,0.36958186993199404,0.4170002755299125,0.17781026938490105
659,1456704057803041,0.16893033669970683,0.3018410630116257,0.23358416477745172,0.138727887122304,0.3190140148661375,0.3710898397920851,0.41629660374960226,0.18709036682119565
660,1456704057805076,0.170973760793141,0.310455808319002,0.23738603851442167,0.14559179719957266,0.32795859322583754,0.3721288543454229,0.414510394304175,0.1964655436939216
661,1456704057805076,0.1730098204533721,0.31946842664588604,0.24085785119539443,0.15218322517694013,0.33599797361521955,0.3726573274616029,0.41166980521378527,0.20586202711646442
662,1456704057818104,0.17503839329030157,0.3288001841804499,0.24400427878339043,0.15839081596849947,0.343003678713367,0.37264202354710624,0.40782849883767763,0.2152065443220016
663,1456704057818104,0.17705825457686108,0.33835622054641085,0.24684795500353554,0.16410721731587757,0.34886258214621996,0.37205895219955226,0.40306401290444005,0.22442705088835435
664,1456704057832100,0.17906705858030028,0.3480258138122729,0.24943030605118138,0.16923195881576703,0.3534804760214414,0.3708940635615756,0.39747525596474015,0.23345340513614848
665,1456704057832100,0.18106150345210875,0.3576833979577314,0.25181149647959267,0.17367417072548433,0.3567853444282455,0.3691437519909607,0.39117918446691463,0.24221800984322997
666,1456704057840087,0.1830376662891584,0.36719034219332514,0.2540693830425798,0.17735504833230994,0.35873008523232053,0.3668151957021317,0.3843068129153816,0.2506564584039721
667,1456704057840087,0.1849914699447438,0.37639745153701,0.25629746613996673,0.18020999049060804,0.35929442855084515,0.36392656652760014,0.37699878905953665,0.2587082266515684
668,1456704057847085,0.18691921021881505,0.3851481086566722,0.2586019139080029,0.1821903567490433,0.3584858364815164,0.36050712933683743,0.36940081569421424,0.2663174464511288
669,1456704057847085,0.18881804580611458,0.39328194537743455,0.2610977976779955,0.18326479969574241,0.35633924655360927,0.35659722202369837,0.36165920455025263,0.2734337834239272
670,1456704057863087,0.19068634149893707,0.40063890449874606,0.26390471707258417,0.18342014589716057,0.35291564820726795,0.35224807722971635,0.3539168036686551,0.2800134158714091
671,1456704057863087,0.1925237581450742,0.4070635316100904,0.2671420123136582,0.18266181742869517,0.3482996324122971,0.3475214262921263,0.34630946961535325,0.28602007537216545
672,1456704057865086,0.19433100580243148,0.41240933460920853,0.27092377062936585,0.18101379766969952,0.3425961782665746,0.3424888224694279,0.3389631891903144,0.2914260679398487
673,1456704057865086,0.19610922763025956,0.41654307324402806,0.27535384018560133,0.17851814976360697,0.3359269980172546,0.3372306350797131,0.3319918999820501,0.296213155514529
674,1456704057877123,0.19785905415631155,0.4193488812440434,0.2805210674579477,0.1752341011256886,0.3284267502019011,0.3318346882473864,0.32549600526435196,0.30037314618578265
675,1456704057877123,0.1995794355646338,0.4207321541382295,0.28649496873763275,0.17123671384161626,0.32023937222664417,0.32639453750610226,0.31956152461729287,0.30390802778811943
