,timestamp,x,y,z
0,1456704054358492,0.002473580089947789,0.00455024835046768,0.00929973157775345
1,1456704054374493,0.0362766988483954,0.0666140991565078,0.032705860022178804
2,1456704054397494,0.0666776092566818,0.12195945255379188,0.05812939854534169
3,1456704054420024,0.09063461507872839,0.165132086690818,0.08642829622815731
4,1456704054434513,0.10595033420221045,0.19295035062876334,0.11690441736570678
5,1456704054457509,0.11170654095440641,0.20469542336616475,0.1470723736003225
6,1456704054479510,0.10868832182909242,0.20173404084813695,0.17289297427326564
7,1456704054519058,0.09947984542337181,0.18694047121093305,0.18959046090669215
8,1456704054521056,0.08789269809832251,0.16418970889072695,0.1931238734071257
9,1456704054532524,0.07777023072123601,0.13790768160956024,0.1819611102797769
10,1456704054554526,0.07167269423222336,0.11247692061674239,0.15826785132418034
11,1456704054578526,0.07012140107047028,0.09139308740903326,0.12764219759592624
12,1456704054592527,0.07183850671268686,0.0763995986292479,0.09731318518137963
13,1456704054636540,0.07484575764529901,0.06710306918747645,0.07365624309472214
14,1456704054644541,0.07771187820013316,0.0614403679093807,0.060197404962783405
15,1456704054656542,0.08013394747694995,0.05683688167824047,0.056875760840547095
16,1456704054674738,0.08255575701085173,0.05143128830215798,0.060679467918746136
17,1456704054697666,0.08524882571369642,0.044759714355094966,0.06725808392853463
18,1456704054712546,0.08762022777358086,0.03769991412369211,0.072798880624623
19,1456704054735431,0.08826314577600215,0.03187143288140812,0.0753632197063433
20,1456704054758477,0.08568516441710304,0.028846515215952627,0.07516805795968906
21,1456704054772107,0.07917469688988038,0.029508107359940496,0.07390031838156975
22,1456704054795365,0.06924549800661153,0.03378465871411315,0.07361043728508034
23,1456704054818410,0.05749447822070534,0.04080255242305901,0.07571680909423968
24,1456704054831619,0.04608684558762157,0.04927761380416593,0.0803787038290536
25,1456704054854621,0.03714233738825617,0.05787169730106563,0.08634169303740369
26,1456704054877623,0.03218731986599704,0.06536333299913209,0.09134626214109819
27,1456704054891623,0.0317898715918499,0.07069991234149256,0.09305942113755125
28,1456704054915128,0.03547758730278733,0.07308485266852213,0.09017258078099077
29,1456704054937635,0.04195405475030715,0.07214146001748359,0.08309589469734723
30,1456704054953637,0.049523338761402934,0.06804378568527102,0.07385716126966745
31,1456704054974638,0.05657391588041961,0.06148356192500832,0.06528480087002692
32,1456704054997639,0.06196821185963345,0.05345614599749488,0.05994624493631539
33,1456704055013912,0.06522341132372989,0.04497980353331533,0.05936900926522395
34,1456704055034651,0.0664460394226048,0.03690594794651649,0.0638229800066016
35,1456704055064653,0.06607222489453456,0.029908002709624654,0.07258441052359843
36,1456704055073653,0.06455819737091917,0.024607742613192485,0.08435986744490272
37,1456704055094654,0.06223231084920949,0.02170743923551024,0.09760070251590858
38,1456704055118378,0.05945054301059613,0.02200573799843951,0.11074541383895126
39,1456704055134384,0.0569407910544668,0.026248595927318007,0.12264827070501931
40,1456704055155383,0.05597808503433851,0.03483228536778768,0.13325476236813358
41,1456704055178446,0.058087622270832064,0.04743813835275051,0.1440661317001002
42,1456704055194367,0.06431553923326973,0.06276996837830795,0.15766050509551208
43,1456704055215171,0.07444392554895907,0.0786149295757213,0.17602871118621286
44,1456704055238183,0.08663045627621524,0.09233879038513415,0.1985401382318385
45,1456704055254385,0.09778819267014698,0.10166346712876206,0.22102298269994733
46,1456704055274186,0.10464018963676454,0.10533729686938599,0.23692560549281688
47,1456704055298187,0.10496110449343621,0.10332158863050495,0.24010044800551408
48,1456704055314187,0.09836298153011569,0.09643145707754289,0.22760473171660894
49,1456704055334200,0.08627313660335041,0.08575304077757322,0.2009844388539898
50,1456704055358201,0.0712756253597406,0.07229041105392592,0.16558502012280826
51,1456704055374203,0.05630331269552568,0.057075714121551074,0.12851451373228853
52,1456704055394203,0.04405870687228621,0.04161196581324772,0.09631934662943159
53,1456704055418224,0.036701275282910575,0.028300729351100097,0.07330075487559683
54,1456704055434232,0.03561647806589005,0.020539310751547656,0.060973444801849665
55,1456704055454234,0.04114536432262626,0.022324968514348342,0.058595976608362736
56,1456704055478234,0.05237148895658714,0.03733509558304087,0.06420813340957923
57,1456704055500236,0.06717678279217537,0.0675970070083248,0.07548871826245966
58,1456704055514236,0.08269535491565336,0.11211323684170472,0.0900467730699831
59,1456704055537253,0.09611378762164108,0.16605900067402146,0.1052228911032146
60,1456704055559255,0.10556932242353474,0.22113361107465815,0.1178249905346578
61,1456704055574371,0.11074055809869769,0.26723436287939356,0.12432313163197584
62,1456704055597257,0.11279050193705992,0.2950910980661759,0.12181375548899219
63,1456704055619769,0.11369736026831817,0.2991161625066937,0.10953941450684959
64,1456704055635284,0.1153835974859552,0.27949227857487685,0.09017218135132678
65,1456704055658290,0.11905110247353155,0.2425007424395057,0.06989244024044688
66,1456704055680287,0.1248539111420725,0.1985828716124264,0.05677589455431171
67,1456704055695288,0.13187301418955782,0.15868278063557847,0.057903969366662845
68,1456704055718808,0.13836114332306512,0.1304610130233319,0.07636793441292208
69,1456704055740370,0.1421952192085106,0.11616027251057984,0.10951064492941168
70,1456704055762316,0.14142254689471886,0.1129662947998926,0.14930949232775476
71,1456704055778371,0.13485251698548253,0.11531331584499914,0.18494963964255648
72,1456704055800370,0.12270174004261797,0.11774723851448604,0.20662244022755133
73,1456704055816381,0.10715134969632094,0.1170576004927949,0.2088747761939828
74,1456704055838485,0.09244891358242119,0.1130491197489591,0.19203996523729747
75,1456704055860492,0.08416535745990993,0.10802925490845323,0.16143995739249162
76,1456704055875336,0.08750336683327502,0.10553746939811105,0.1252707557070018
77,1456704055899337,0.10507246212582845,0.10893180502918708,0.0924139124309819
78,1456704055920352,0.1350858159309894,0.1202466260131404,0.07081649204105261
79,1456704055935366,0.17111721293135634,0.1394430400722964,0.06628251877146066
80,1456704055958362,0.20401880179912776,0.16404016996276122,0.08126633199633028
81,1456704055979364,0.22543059482829922,0.18927814996569256,0.11372631665374491
82,1456704055995393,0.23126724693740153,0.2091758225324173,0.15675952676443963
83,1456704056027222,0.22346974045684276,0.21857536082736748,0.19986356280975326
84,1456704056039707,0.20918074147668608,0.21546683912111325,0.23197574967902987
85,1456704056055505,0.19768596871688174,0.20234071612790044,0.2452600989171067
86,1456704056078507,0.19641644751680945,0.1856819113716138,0.23779248328564706
87,1456704056102509,0.20772917034312105,0.17367998320374145,0.213698604101215
88,1456704056116035,0.22784459409583296,0.1730406503585304,0.18083381628384268
89,1456704056138617,0.2483748212538086,0.18610731421735616,0.14750666712608063
90,1456704056160618,0.25984438581591784,0.20941726275475037,0.11995605825584466
91,1456704056176619,0.2557773388752612,0.2344361177661803,0.10144580672722127
92,1456704056198620,0.23548746055291503,0.25049171706793594,0.09280077169945547
93,1456704056220220,0.20415711413492293,0.24889159168469185,0.09358439415428312
94,1456704056235437,0.1702237182226969,0.22637665407941093,0.10302775147227616
95,1456704056258437,0.14157536342316832,0.18624164756180153,0.12015758234435255
96,1456704056279438,0.12253543398558177,0.13676547451379847,0.14317311399571675
97,1456704056295473,0.11294464700523967,0.08809883572327364,0.16870567901999237
98,1456704056319244,0.10938753911055092,0.049336404690057636,0.19178389164169074
99,1456704056340474,0.10751925065907601,0.026891123151197332,0.20693553813859683
100,1456704056356255,0.10413989673252415,0.024137423895006976,0.2100981744388415
101,1456704056378396,0.09815389965057511,0.041529889453106435,0.20035553893724373
102,1456704056402397,0.09031398545038392,0.07653453409040394,0.18041184993892329
103,1456704056416152,0.08222415967907142,0.12344514210194873,0.15537063264332807
104,1456704056453418,0.07530473076656069,0.17376099447639715,0.13050217881407167
105,1456704056461416,0.07027211317399923,0.21774946122884806,0.10939703818956348
106,1456704056476417,0.06726481075955418,0.24709775188130656,0.09353758441831173
107,1456704056498421,0.06636693183730152,0.257642788131672,0.08322538429433564
108,1456704056521937,0.06819199976134332,0.250809184707067,0.07893802287702667
109,1456704056542454,0.07430498646414858,0.233034034802504,0.08207871466826416
110,1456704056559447,0.08731289938846272,0.21361054070216276,0.09456514467648201
111,1456704056581449,0.11038263851916665,0.20195311161366145,0.11742179386053792
112,1456704056595464,0.14600441231072211,0.2049792683713503,0.1492013113152111
113,1456704056619012,0.1942564721300099,0.22500421097366885,0.18530436405522185
114,1456704056641483,0.25142812905479767,0.2588093595032817,0.21880881246262326
115,1456704056655484,0.3099916056039566,0.29862884114337174,0.24251838118952235
116,1456704056678485,0.36024817142138466,0.3349670546875199,0.25128605022338074
117,1456704056701486,0.39301163521590404,0.3600299193313935,0.24365650469292763
118,1456704056724007,0.4022389689318507,0.37022470240461147,0.22229863860139093
119,1456704056738508,0.3867125801853098,0.36679504821863734,0.1931371448285988
120,1456704056761509,0.35025210053215283,0.3545135833565719,0.16341805875969587
121,1456704056782550,0.30033396131522994,0.3390527220342163,0.1393092595432089
122,1456704056798511,0.24563341478903153,0.32425748409276717,0.12394712166361502
123,1456704056822031,0.19360585743325848,0.31076267991611617,0.11673279145888994
124,1456704056843007,0.14913754303757412,0.29666605733990176,0.11412869798364236
125,1456704056858945,0.11448954128145203,0.27956705079863786,0.11157639698995105
126,1456704056881734,0.08998384356902887,0.2584131397385001,0.10570821451959564
127,1456704056903011,0.07474623184993291,0.23403169702414134,0.0958583729845884
128,1456704056919486,0.06719337298293648,0.208407016165949,0.08417604659394355
129,1456704056941758,0.0653175115071308,0.18354235754406498,0.07438950461511673
130,1456704056962761,0.06691907663402556,0.16069413316341727,0.06997447966857538
131,1456704056978779,0.0698751685524435,0.1403043304384399,0.07264961919035108
132,1456704057008762,0.07245784516773299,0.12250007630337399,0.08180593050474792
133,1456704057022771,0.07364101185102015,0.10770250275791415,0.0950009196220271
134,1456704057038778,0.07327723302088912,0.09684631301327724,0.1091713115749223
135,1456704057061780,0.07205072379396608,0.09101112832112493,0.1218645260636006
136,1456704057082781,0.07119475058187459,0.09067052769225048,0.13182043472124316
137,1456704057099019,0.07202832301255706,0.0950263161894853,0.13872839487673458
138,1456704057122237,0.07543648206707325,0.10190278363185178,0.14257770467556533
139,1456704057142329,0.08150034139589374,0.10836340472696333,0.14324425412102482
140,1456704057158192,0.08945190467140969,0.11172154807623465,0.14068249904590405
141,1456704057180193,0.09792455468671697,0.11036330886853271,0.13554756253838254
142,1456704057202199,0.1053027021082465,0.1040141408423002,0.12963942610154972
143,1456704057218709,0.11004972431053116,0.09349783296984598,0.1255997052784558
144,1456704057240227,0.11105466455617045,0.08027843743762254,0.1258484154043646
145,1456704057262387,0.1079909177813312,0.06606176936971131,0.13136285705826067
146,1456704057279228,0.10148263965665529,0.05259098078877763,0.14102067351480863
147,1456704057301350,0.09286932861295427,0.04160217819458464,0.15185210436616212
148,1456704057323185,0.08364587361587959,0.03476593963369525,0.16010053441468344
149,1456704057339384,0.07493186637550833,0.03341557014310609,0.16267652838134397
150,1456704057361149,0.06729165860381055,0.038023768282170585,0.15835740555904082
151,1456704057384351,0.06092715470872311,0.047657645594703806,0.14809920241642088
152,1456704057399353,0.05597336468884159,0.059802963791778165,0.13430440049740472
153,1456704057428859,0.05258957076457156,0.07084437399624076,0.11954012717041056
154,1456704057443362,0.05078791014101623,0.07716500348775138,0.10546636640409278
155,1456704057458363,0.05022599294230247,0.07647595052256433,0.09247285724455685
156,1456704057481365,0.050218657662326326,0.06879259638471666,0.08007072799691788
157,1456704057504377,0.05001030195923306,0.056568313645102994,0.06774146762529125
158,1456704057519155,0.04914685228208442,0.04388584721445347,0.05577645004170831
159,1456704057540989,0.047736891852090416,0.035071162909336456,0.04566243330155623
160,1456704057563990,0.04644868930551744,0.03330794183915374,0.03979165679389114
161,1456704057579131,0.046196515240665696,0.03970880269113469,0.0405843078153422
162,1456704057601256,0.04761370567405399,0.05305102974003535,0.049364989987638344
163,1456704057624356,0.05055400884766999,0.07018934824835552,0.06549325573566774
164,1456704057639000,0.05392585164806856,0.08700193562145608,0.08625822163883923
165,1456704057661003,0.05606443181652565,0.09959192559848185,0.10778803117796396
166,1456704057684003,0.05556427888781218,0.10543597537671402,0.12668540640972495
167,1456704057699040,0.05215717831832653,0.10422903124546518,0.14152998878291004
168,1456704057721030,0.047092668380644916,0.09818125339640217,0.15323693440769512
169,1456704057744038,0.04272958397685491,0.09150285904962517,0.163849617151342
170,1456704057765044,0.041513722922724976,0.08898814619820475,0.17443528004947012
171,1456704057781050,0.044848371408767136,0.09404167036053432,0.18356619557604098
172,1456704057804041,0.052390176804203624,0.10692239856119844,0.18768402146940566
173,1456704057819103,0.062108920627386134,0.12411722437751872,0.18341767241135953
174,1456704057841086,0.07115548627969064,0.1394752552188122,0.17044416949806904
175,1456704057864087,0.0772366322285282,0.14703875586794043,0.15291146787997972
176,1456704057885117,0.07990602046264823,0.14451485225375824,0.13832116229620117
177,1456704057901301,0.0811377132839162,0.13553243546560373,0.13438041517434826
178,1456704057924298,0.08482462005860694,0.12901957666519748,0.14544244456761707
179,1456704057944843,0.09532218604797926,0.13550705026190793,0.17025500014867692
180,1456704057961555,0.11562926457159967,0.1620307953662012,0.20212487685424843
181,1456704057984558,0.1460029828889746,0.20820821418656307,0.23159243855220318
182,1456704058004784,0.1835569612242243,0.2654679550904521,0.2504600246113083
183,1456704058021115,0.2228694139787676,0.31989030415110736,0.25510993003453486
184,1456704058043805,0.2572595962854574,0.35753162285061374,0.24733449707290128
185,1456704058064807,0.28032492836028094,0.36999091214246044,0.23242597027116688
186,1456704058080808,0.2873898087999298,0.35766570879450305,0.21591717225120757
187,1456704058118023,0.27662701914505444,0.3289982312678141,0.2009611833948025
188,1456704058125292,0.24970219678924582,0.295985049176059,0.1876781025675601
189,1456704058140752,0.21167309831515665,0.26834387359945794,0.17447092972744427
190,1456704058163754,0.16980918617895685,0.24951603911215123,0.16016217514126216
191,1456704058185037,0.13149709855802394,0.2364411606108187,0.14547617829688692
192,1456704058200756,0.10211870864425272,0.22267065019702748,0.13299271126480247
193,1456704058224364,0.08383408945833518,0.2025942311666982,0.1257537543284191
194,1456704058244857,0.07555622687294401,0.17439781536141474,0.12550518502055916
195,1456704058260853,0.07385060561409469,0.14059095525988474,0.13162500986063969
196,1456704058283853,0.07436084490879845,0.10641799527435802,0.1412240980295843
197,1456704058306878,0.0733455577290208,0.07732290191161131,0.1502031106001163
198,1456704058321154,0.06884064915654323,0.056760321350501436,0.1546419579507855
199,1456704058343663,0.06103158920459848,0.045235264016004396,0.15192567128770929
200,1456704058366664,0.05175446381285447,0.04072882920039559,0.1413477234807644
201,1456704058388664,0.043439542386425375,0.03999415783113366,0.1242376392680869
202,1456704058403665,0.03799428624419223,0.03995508493795838,0.10366156023929539
203,1456704058426961,0.036055812594459134,0.03865999119626742,0.08361949009904267
204,1456704058440281,0.036851223760053356,0.03564681454394804,0.06780403984559379
205,1456704058464282,0.038666403542739966,0.031830530330495065,0.0583601167072521
206,1456704058486402,0.03968594246561511,0.02905213951027108,0.05525792006296985
207,1456704058500404,0.03882355201584076,0.029387351627155778,0.0566361768394164
208,1456704058524075,0.03618507149215613,0.03435411385002125,0.05996795910428305
209,1456704058546378,0.03297950755333725,0.04425555938627933,0.06345562477523818
210,1456704058560402,0.030947620187473487,0.057901094995269256,0.06692526704004044
211,1456704058583380,0.03159893451580378,0.07280329960936152,0.07176664725424271
212,1456704058606397,0.03561078709993002,0.08578045595849054,0.07998340571254772
213,1456704058620673,0.042621954116496025,0.09382355925407503,0.09284913487223025
214,1456704058643485,0.05145812680218506,0.09504710798065583,0.10983488853824494
215,1456704058666486,0.060658352056778955,0.08944739636388811,0.1283997402788425
216,1456704058680494,0.06903146092103715,0.07913049114420503,0.1448722587926803
217,1456704058703487,0.07590847603672667,0.06780058137236984,0.15599923696162174
218,1456704058727345,0.0809333979188193,0.05960597188310684,0.16023085799330078
219,1456704058740576,0.08362390070242065,0.05772952535552808,0.15803919768680016
220,1456704058763578,0.08316967548650891,0.06322662359057411,0.1513972016299951
221,1456704058786579,0.07874178896277448,0.07456648987899558,0.14304923742105102
222,1456704058807585,0.07014588496281268,0.08814105784823609,0.13587156530420122
223,1456704058824119,0.058366357035563775,0.0996239905576021,0.1321094019007731
224,1456704058846613,0.0456071650861556,0.10561757151733686,0.13241167661868922
225,1456704058867613,0.03473077104076537,0.10485745353364975,0.13516724804038535
226,1456704058883650,0.028311178176030138,0.09850637455924625,0.1368441421522545
227,1456704058906651,0.0276996442966533,0.08951941274201143,0.13349237525933952
228,1456704058928122,0.032506633254244424,0.0814058539291999,0.12274225448084973
229,1456704058943677,0.04074621952474546,0.07687625138117689,0.10525410901330913
230,1456704058966643,0.04963576304181865,0.07690059525709933,0.08493541394564112
231,1456704058987889,0.05678270756545173,0.08058512104615496,0.06789479669449536
232,1456704059003840,0.0612815865921427,0.08592101705361557,0.06050621259150414
233,1456704059027388,0.06417915626340709,0.09098183426377542,0.06711635459838232
234,1456704059047982,0.06798376282700347,0.09489486234438506,0.08809564875706466
235,1456704059063983,0.07536767908113223,0.09808958850111849,0.1190280549810732
236,1456704059094246,0.08764965391045419,0.10174990023868352,0.1515728102428388
237,1456704059107983,0.10378959231531813,0.10678867151094101,0.17588631436779595
238,1456704059124309,0.12044554194985244,0.1129220645224295,0.18380394941068193
239,1456704059145960,0.13318929706391358,0.11844269697709273,0.17167684901432584
240,1456704059168082,0.13836915291388102,0.12091961583451324,0.1419644386948244
241,1456704059184192,0.13469336994334033,0.11843525981595551,0.103131248017598
242,1456704059206194,0.12376449392916458,0.11062452763932876,0.0678057043503007
243,1456704059228448,0.10944066448745744,0.09904175589140972,0.04953009628500067
244,1456704059244035,0.09648036758857005,0.0869256581642868,0.05880993656791823
245,1456704059266038,0.08903451821899457,0.07865158369202092,0.09945548265264988
246,1456704059289304,0.08936149414845766,0.07894816255601786,0.16633728478557375
247,1456704059304306,0.09706489679528485,0.09179040760808298,0.2456336432535237
248,1456704059326060,0.10920600315883758,0.11910264898760088,0.3182016734488563
249,1456704059348370,0.12147022457038156,0.15975883957361436,0.36556214775104745
250,1456704059363371,0.1300311028096852,0.20939022057067114,0.37644507915534386
251,1456704059386424,0.13320319377737114,0.2611506843261456,0.35101765805523083
252,1456704059408370,0.13191750533318705,0.3072671715944123,0.30073826113475843
253,1456704059424304,0.12869229340810384,0.3411275227141964,0.24380824615953323
254,1456704059445357,0.12576510583162304,0.3594247449292425,0.1981542944242313
255,1456704059468357,0.12368346529140793,0.3633058596580044,0.17496553229193337
256,1456704059483358,0.12136386621959687,0.35741476034166564,0.17565012652595516
257,1456704059505359,0.11752142586416231,0.3469384580994889,0.19338546475280494
258,1456704059530156,0.11226030945562382,0.3344147306358144,0.21786756592507084
259,1456704059543163,0.10746845763730178,0.31844996058092545,0.24017722777271702
260,1456704059565165,0.10566994266214577,0.29520401015953807,0.25515149250342406
261,1456704059588335,0.10823569157691533,0.2616678382981497,0.2608018357145338
262,1456704059603365,0.11424502464852346,0.21866305540712364,0.2564192928206832
263,1456704059625693,0.12067883460808766,0.17169537784672317,0.2415038288608952
264,1456704059649737,0.12372816785342107,0.12912771626932038,0.21638596723749984
265,1456704059663702,0.12048362001660008,0.09871818579628977,0.18366141333863611
266,1456704059686006,0.1102333613867369,0.08437240835770027,0.14881013815322316
267,1456704059709704,0.09483841681038424,0.08467460075265909,0.1190042671504716
268,1456704059723995,0.07803770126300405,0.09376922404876842,0.10043485017857957
269,1456704059745504,0.06397822731191663,0.10402392076386563,0.09554155628142691
270,1456704059768505,0.05560651061023935,0.1091321450663297,0.10168785314078436
271,1456704059789797,0.053624189562174546,0.10628126300315448,0.11207872330158633
272,1456704059805507,0.056442654164385805,0.09666565794229044,0.11857087384672751
273,1456704059828801,0.061069125535763394,0.08443649919806147,0.11509335212979924
274,1456704059850099,0.06439186851323397,0.07468054611087463,0.10011364686580956
275,1456704059866100,0.0642123554109394,0.07121392035090499,0.07708856469064963
276,1456704059890101,0.05966352580883066,0.07500873121355889,0.05286797954438556
277,1456704059912101,0.05108626208180766,0.08386513476531125,0.03496642312144636
278,1456704059926114,0.03967336313343816,0.09342734805580033,0.028947449117893643
279,1456704059949124,0.027139759683323758,0.09903186712207072,0.036839926371422714
280,1456704059969126,0.015496759378017323,0.09753005452303118,0.05690254158980066
281,1456704059985126,0.006869028944487875,0.08833364637980608,0.08453659499788231
282,1456704060009138,0.003243535977473799,0.07337474222600682,0.11384372238684345
283,1456704060029648,0.006072098703935603,0.05616942839353422,0.13922336593170784
284,1456704060045158,0.01576322300828319,0.040490570086682796,0.1564914372311514
285,1456704060069258,0.03125262490496183,0.029202798553683528,0.16329390293060309
286,1456704060090260,0.04993171164758803,0.023633608895035758,0.1590215307564041
287,1456704060106291,0.0681386712538485,0.0235687971147991,0.1446954161991918
288,1456704060129118,0.08216319529814606,0.02771668719542539,0.12307685409649591
289,1456704060149575,0.08940762286699183,0.034377529080104025,0.09875814453605598
290,1456704060165574,0.08920036872322121,0.04206162121692877,0.07775078122686548
291,1456704060188575,0.08290897231048076,0.04985604993882074,0.06628627543569227
292,1456704060211576,0.0733669396614116,0.05743507272382084,0.06896181762300506
293,1456704060225906,0.06395293955213743,0.06475686088669258,0.08681328329135106
294,1456704060248379,0.05770907659587498,0.07163155421274675,0.11622746496420999
295,1456704060272382,0.05667150224064975,0.07739361332412564,0.14951381545990758
296,1456704060285380,0.06140228718795216,0.0808723547114396,0.17725514293265104
297,1456704060308381,0.07078510985689827,0.08078317578006858,0.19156724478649392
298,1456704060331687,0.08231576640603319,0.07650813418268305,0.1888480697883811
299,1456704060345980,0.0930198419616335,0.06893458797012504,0.17089260392352018
300,1456704060369211,0.10068619760890647,0.060757542596648347,0.14400966427159906
301,1456704060392252,0.1046927794870526,0.05577989560902591,0.11646736812174942
302,1456704060406249,0.10582427250764209,0.05731996901878938,0.0951885686522072
303,1456704060428755,0.1052064586120485,0.06643734818711568,0.08310466971958268
304,1456704060451941,0.1032194685087967,0.08089507730854119,0.07847969990791037
305,1456704060466205,0.09928396216401669,0.09555228273511791,0.07656223279865172
306,1456704060489206,0.09268266884917123,0.10434053516261489,0.0726669534001484
307,1456704060512207,0.08376835009377186,0.10318816123786705,0.06509568737797634
308,1456704060526303,0.07469300020745061,0.09253177611974915,0.05652207414407817
309,1456704060548927,0.06917856746493745,0.07800192036449799,0.05330916019382889
310,1456704060571895,0.07136767834776335,0.06874101465145853,0.06319673449496006
311,1456704060586159,0.08415557787934322,0.07404691626960185,0.0924120508602307
312,1456704060609162,0.10767358539813685,0.0998088460715329,0.14328444630394538
313,1456704060632222,0.13873237745317024,0.146186075978684,0.21302602254537023
314,1456704060645846,0.17171098263688747,0.20736297583718527,0.29383864459224285
315,1456704060668870,0.20053000162540388,0.2733650217653272,0.3742037082609383
316,1456704060692115,0.2206235676011123,0.3332185594559738,0.44114246376929483
317,1456704060712849,0.2299466249362177,0.3783594495316066,0.4831334862941964
318,1456704060729145,0.22887409448546053,0.4050275645757216,0.49302157881902586
319,1456704060760031,0.21954199399549457,0.4145147518535477,0.4699805918361681
320,1456704060773032,0.2051802119675398,0.4110514464458533,0.4198531503152858
321,1456704060789253,0.18944403886963398,0.39865778144707276,0.3537746370176303
322,1456704060812253,0.17540144318745923,0.3790707232675084,0.2854061310418985
323,1456704060833015,0.16427549551307608,0.3519245733075467,0.22735802617178474
324,1456704060848969,0.15481794741905328,0.3166003027551043,0.1877402805086329
325,1456704060871970,0.14413384106944746,0.2741399027469674,0.1680899223951434
326,1456704060893272,0.12964161699589508,0.22789646281772977,0.1637131392174599
327,1456704060908972,0.1108363707488542,0.1826861076915613,0.16648563757023963
328,1456704060931999,0.08972386570463191,0.14323497306891522,0.1688304130621503
329,1456704060953008,0.0698635735490097,0.11290143024301331,0.16687043583675648
330,1456704060969007,0.05479034581690573,0.09306917660541023,0.16121820331318373
331,1456704060991017,0.0466570030482432,0.08306777750855003,0.1552268801561487
332,1456704061013009,0.04554217918316994,0.08046841175312967,0.15194513310304933
333,1456704061035021,0.04948776053536061,0.08179901045042662,0.15168336510377883
334,1456704061051042,0.0551789021297154,0.08362485603456875,0.1516278458773529
335,1456704061073050,0.059107401966118425,0.08357263382562304,0.14759372121678008
336,1456704061089043,0.0588702717371856,0.08074339449635837,0.13666532115924337
337,1456704061111044,0.05406202751879706,0.07536019512293898,0.11905536219172805
338,1456704061133198,0.046323673684712956,0.06806432414903328,0.09820823284155218
339,1456704061148266,0.03856106183610062,0.0594288670395573,0.07930679377738113
340,1456704061170267,0.03378551791451714,0.04991509734924608,0.06711335965423053
341,1456704061195268,0.03409612683364144,0.04007858433707345,0.06419085625729179
342,1456704061208270,0.04008126071784723,0.03071229533410356,0.07018106046737674
343,1456704061230652,0.0507051109851871,0.022776089051741718,0.08225970912325567
344,1456704061254160,0.06367315652993352,0.017163524550308874,0.09639687503878269
345,1456704061268161,0.07617947409706821,0.014443673712185173,0.10878864373397408
346,1456704061291313,0.08577450500409355,0.014697859160650457,0.11684573891753623
347,1456704061314164,0.09099909890517564,0.017511355157530502,0.11940967980127519
348,1456704061328958,0.0915253658675046,0.022111930430224483,0.11632398535591394
349,1456704061350697,0.08781098325715507,0.027586594561553907,0.1078731466979244
350,1456704061374697,0.08058372726986475,0.03308490776443799,0.09462640665010785
351,1456704061388725,0.07059232226676675,0.037954247700288046,0.07783313181920452
352,1456704061410700,0.058826495571708874,0.04181541293062086,0.05999784448690746
353,1456704061441808,0.04698966291592077,0.04460393826650835,0.04502467936323294
354,1456704061450781,0.03775411383733795,0.04655707454696734,0.03753704687868792
355,1456704061470782,0.034396391890793375,0.048096812034328036,0.04143871487581869
356,1456704061494783,0.03971988238792555,0.0496121815264755,0.058179638051011034
357,1456704061508784,0.05459732350671238,0.05123002613328993,0.08542907490050615
358,1456704061531077,0.07682893370636845,0.05269345935222956,0.11692554342245665
359,1456704061555372,0.10105579471918531,0.05342711316435501,0.14403204023656557
360,1456704061568374,0.12008457066321183,0.05279998297999403,0.1588617299499252
361,1456704061590374,0.1273712344900549,0.05054649451957233,0.15788875705692346
362,1456704061614376,0.11989457106971144,0.04728115600311892,0.14421639604051578
363,1456704061635174,0.10037641919416591,0.044976100140973564,0.12687467042567308
364,1456704061650993,0.07778723100895246,0.04714096433485613,0.11696231519081818
365,1456704061674995,0.06540099107984687,0.05838495404175506,0.12235077596086207
366,1456704061695182,0.07647717857001085,0.08320514678832981,0.14368151949854666
367,1456704061711228,0.11879890545862386,0.12422264175569953,0.17382692189503504
368,1456704061734984,0.19018885499853264,0.18049486206167908,0.20125451177880488
369,1456704061754730,0.27716293020658306,0.24669600690233917,0.21577850529486914
370,1456704061771019,0.35795908618770417,0.313681305360662,0.21389061451345956
371,1456704061794993,0.4095722923488574,0.37035172962640805,0.20085818148403856
372,1456704061814946,0.4165217265693823,0.4062739857059292,0.18828481068517655
373,1456704061830958,0.37758799388091635,0.4144648014266222,0.18828465508785414
374,1456704061854968,0.30693440942075906,0.3937476644040878,0.20737055352302167
375,1456704061875254,0.2286048724292903,0.3497893142474269,0.24325194224507035
376,1456704061890970,0.16702680236630044,0.29389202701182693,0.2860328535426522
377,1456704061913972,0.13812422020891502,0.23954588842578367,0.32303164395026757
378,1456704061936268,0.14470784688667734,0.19809561271942044,0.34474346327172717
379,1456704061950277,0.1772043369493239,0.17542397876874175,0.34891172353833444
380,1456704061973277,0.2184707960772017,0.17093555484093936,0.3406025794791147
381,1456704061995320,0.25037159567834505,0.1789623680563606,0.32839499729689003
382,1456704062010279,0.2598049279483961,0.1916579556801225,0.31909994800941055
383,1456704062033806,0.24236797026244442,0.20190685998572008,0.3142022082762928
384,1456704062055348,0.2026243208325529,0.20507495374407117,0.3098982119936763
385,1456704062070314,0.15116463681824388,0.1993932869847295,0.30020300787960447
386,1456704062093350,0.10004277902006774,0.18556218033526306,0.2808240292132944
387,1456704062116316,0.058772324937875695,0.16614509692467766,0.2514241993338439
388,1456704062130841,0.03235193806260972,0.14484203091900463,0.2153446187270656
389,1456704062153369,0.021374076964240686,0.12553478329457438,0.17763887842134957
390,1456704062176334,0.023271508039792645,0.1112101476576082,0.14308400092394497
391,1456704062190335,0.03370332058541489,0.10309471367062428,0.11524618386467231
392,1456704062213338,0.047646542058979335,0.10034387893695974,0.09643015654498464
393,1456704062237096,0.060289016072621535,0.1004541316110875,0.08766075950274936
394,1456704062250351,0.06793795365321381,0.10028217507652028,0.08827898702651982
395,1456704062279353,0.06889502208319558,0.09725833705595292,0.09560112544730916
396,1456704062296354,0.06389481106915361,0.09025563539710792,0.10533987498414518
397,1456704062311354,0.0556605896962341,0.07976334585860682,0.11290465466365314
398,1456704062333900,0.04759075901326936,0.06742968429657012,0.11494936458277208
399,1456704062357119,0.042207057675673315,0.055354335555022935,0.11031716621997927
400,1456704062371085,0.04018293560756316,0.04548450787638391,0.09997026280756742
401,1456704062393883,0.04037392849058136,0.03922507365136557,0.08615940846777247
402,1456704062423157,0.04066493684934276,0.037209346761492415,0.0714378719889718
403,1456704062431162,0.039059241940662626,0.039187634897762495,0.05798372775351454
404,1456704062453175,0.034451963531779504,0.04406011382476786,0.04732706500546496
405,1456704062476175,0.026879999717781728,0.05010641232264066,0.0403361224146038
406,1456704062491177,0.01741707865790228,0.05544131550401553,0.037321121325662246
407,1456704062514178,0.007986544245024065,0.05865574396937258,0.038231164656472534
408,1456704062537158,0.001185548903025644,0.059462646260115416,0.042948304365376375
409,1456704062559164,0.0,0.05902125394078456,0.051584397944812295
410,1456704062573083,0.007249303988152745,0.05963621912359386,0.0645904363081895
411,1456704062596088,0.02473231800346539,0.06382155726397035,0.08250256703407052
412,1456704062618161,0.052235218681498864,0.07312226496910992,0.10527824632806906
413,1456704062634069,0.0867331198995165,0.08727682047062905,0.13142501605053025
414,1456704062656794,0.12224631774727451,0.10412240171305863,0.15747127934639085
415,1456704062678072,0.1508130053315525,0.1202547374889993,0.178481141606138
416,1456704062693951,0.16470509554401153,0.13213409734925638,0.18981350244315492
417,1456704062716798,0.1592563779723135,0.1372055266800256,0.18926315734789845
418,1456704062737842,0.1349671772552449,0.13465838904799726,0.17811410112974096
419,1456704062753313,0.0977283495722134,0.12564375668278702,0.1603911064182182
420,1456704062776315,0.057168353511850345,0.11302944596363855,0.14112256700411527
421,1456704062797315,0.024202909635963187,0.10098180158991882,0.12508191356809686
422,1456704062813316,0.008855574549688246,0.09466338570643938,0.11660354598409287
423,1456704062836580,0.018603977582053347,0.10002498272979482,0.11978615519431052
424,1456704062858126,0.0569567742432285,0.12323032635273783,0.1381039571696726
425,1456704062874088,0.12220395529953171,0.169175527498811,0.17327571687067403
426,1456704062896088,0.20686997801004536,0.23915850775279265,0.2241331131627977
427,1456704062917089,0.2986024472914041,0.3286650821653109,0.2861999701150194
428,1456704062934134,0.3827655556590479,0.426736216877974,0.3519391646695181
429,1456704062962381,0.44614979826997125,0.5179702629318701,0.411267819827593
430,1456704062977303,0.48047439907069267,0.5869175332015913,0.45252514433215785
431,1456704062993303,0.4842783632737809,0.6231017166846177,0.46470069392437025
432,1456704063016304,0.46259660941899355,0.6242627400091356,0.4411461958780515
433,1456704063038031,0.4249014773328663,0.5962780210572205,0.3833370348333328
434,1456704063053540,0.3821668931299091,0.5499874859540561,0.30218048901375955
435,1456704063076539,0.3436608349426799,0.4966528429976088,0.21529965170972226
436,1456704063099541,0.314203310224064,0.444289819683771,0.1411558252349287
437,1456704063113543,0.29307251600680667,0.3964059514698428,0.09283045957301297
438,1456704063136968,0.2753015944711405,0.3530578064950445,0.0743130955963733
439,1456704063159967,0.25473953918219333,0.3127956710658129,0.08054982714754104
440,1456704063174004,0.22730921421484768,0.27414185579851846,0.10067071722007627
441,1456704063196755,0.1930218028039545,0.2362818968953537,0.12269175128559588
442,1456704063219756,0.15597625258018283,0.19927139802902985,0.13771447387870742
443,1456704063234131,0.12241563927784516,0.16399126599244013,0.14210773932658716
444,1456704063256716,0.09783101775112817,0.13192728004739124,0.1371924673082012
445,1456704063279718,0.08460351646049094,0.10479722504790896,0.1271048082687192
446,1456704063293969,0.0812924438103492,0.08401317014903793,0.11616958158035762
447,1456704063316721,0.08367659351686342,0.07008498712014671,0.10701673684901396
448,1456704063339513,0.08676804328555505,0.06229141117782626,0.1000448552881782
449,1456704063353521,0.0867366893766396,0.05890233969755573,0.09408170208552266
450,1456704063382527,0.08198401578119215,0.05786422214798239,0.08758723156488464
451,1456704063399523,0.07315999288022909,0.05753522324997782,0.07970314983232746
452,1456704063413524,0.06240439305957097,0.05707146663327046,0.07075722442262951
453,1456704063437010,0.052306562042563245,0.056344892343807226,0.06216177306832851
454,1456704063459978,0.04498907371124109,0.05556480956243725,0.055843267057259054
455,1456704063473980,0.041504583677166786,0.05488826041305729,0.053446743521258576
456,1456704063496981,0.04159160109398962,0.054217507211143844,0.055614446925679094
457,1456704063519982,0.04380106251372304,0.053234473364314285,0.06161877226853547
458,1456704063535008,0.04598152491222544,0.05163661965192314,0.06951457780392054
459,1456704063556518,0.04601703466707568,0.0494776100062645,0.07679396979651253
460,1456704063579520,0.04259582527808915,0.047416741497713494,0.08134782484498353
461,1456704063600521,0.0357724305667806,0.04665355791207733,0.08240762503127778
462,1456704063616522,0.027193603100322813,0.04850232526825311,0.08107270061660835
463,1456704063639822,0.01994670218725745,0.05383657329576387,0.08008628511395798
464,1456704063661832,0.017958781135111204,0.0627424418566493,0.08278698321533878
465,1456704063676833,0.024875935204378797,0.07455587921457978,0.09156499278364949
466,1456704063700239,0.04259010467863456,0.08817755279373753,0.106471961665921
467,1456704063721138,0.0699640049108304,0.10240797520297283,0.1246682060586492
468,1456704063736862,0.10248913615441348,0.11614443934872913,0.14110711376142246
469,1456704063760100,0.13333879131370327,0.12849731188004576,0.15036349393271672
470,1456704063781003,0.15560444412003474,0.13894934449973714,0.14898392388225434
471,1456704063796872,0.16482172066107617,0.1475442117132328,0.13740041483762902
472,1456704063818873,0.1606850152568194,0.15499532930255996,0.12052744803833017
473,1456704063847985,0.1472325113006029,0.16269815987765263,0.10667925896313793
474,1456704063857263,0.13141423135245697,0.17270660036294674,0.10512255511158387
475,1456704063878986,0.12052945807599846,0.1876033218470028,0.12304728112298104
476,1456704063901229,0.1194957255613688,0.21000863545223156,0.1628545654518328
477,1456704063916988,0.1291532094355151,0.24154233885263512,0.22059437750065564
478,1456704063938785,0.14649597322571165,0.28148885371879406,0.28627735690178613
479,1456704063960576,0.16679387991486758,0.3259329148257625,0.34642223213757534
480,1456704063976579,0.18644333793577594,0.3682080260752794,0.38829310621967733
481,1456704063998580,0.20476563415833537,0.40093047691590544,0.4041441098158318
482,1456704064021591,0.2235032971735239,0.418965050552158,0.39340096331724245
483,1456704064036880,0.24436429010363492,0.4218233292206188,0.3617701447249796
484,1456704064058390,0.2664413713385608,0.4138536902341355,0.31821025039628575
485,1456704064081392,0.2854106451265595,0.4016999382876795,0.2718990866627038
486,1456704064096393,0.2950784921837821,0.3903704073030584,0.23068393112563212
487,1456704064118394,0.29024921045589724,0.3803577903716451,0.2007792401859018
488,1456704064141256,0.26922490537874133,0.36761409643816406,0.18646785386289005
489,1456704064156246,0.23481447207166808,0.3463280779158183,0.18905339415427222
490,1456704064179248,0.19369531539149062,0.31273497462994504,0.2055647423619255
491,1456704064201249,0.1544606676212984,0.2676878000272351,0.2285553586025104
492,1456704064216250,0.12485674471089957,0.21666108328988049,0.24806342097759868
493,1456704064239184,0.10908552258027662,0.16751413807797408,0.25545312947310256
494,1456704064261840,0.10634428981283943,0.12745987620067045,0.2473160884086219
495,1456704064276841,0.11138940507889324,0.10067426890375335,0.22709877330552944
496,1456704064298843,0.11693764047845441,0.08735199522401865,0.20322330570218705
497,1456704064321843,0.11678856825285276,0.08432942605776306,0.18456779565842088
498,1456704064336659,0.10820247407413808,0.08673642765807012,0.17586880447982114
499,1456704064366677,0.09250881432338993,0.08973772948019046,0.17571218654857507
500,1456704064381679,0.07390385078976626,0.08966886739600537,0.1781574477108591
501,1456704064396679,0.05728065597652831,0.08452080346738346,0.17675060533992001
502,1456704064418680,0.04620379062752713,0.074062349317387,0.16827202140271777
503,1456704064441863,0.04180272165452204,0.05971729905215436,0.15399353316057363
504,1456704064462829,0.04279051737140827,0.04411855445621353,0.1381008440250907
505,1456704064479088,0.04636882960800329,0.030363931093424133,0.12482484322657528
506,1456704064503102,0.049548662678685323,0.021194378513292932,0.11636318661588087
507,1456704064523103,0.05033655379207005,0.01835251778979106,0.11264474729969318
508,1456704064538574,0.04831844445817909,0.02226237921601924,0.11240949506078499
509,1456704064561204,0.04447342242667721,0.0320117021685804,0.11429370972397414
510,1456704064583206,0.040453518649551386,0.04552428068249938,0.11711122031037192
511,1456704064606085,0.03780526791767153,0.0598592101713622,0.11955951402700005
512,1456704064621161,0.03752947603318341,0.0717019789158435,0.12009568022604264
513,1456704064643204,0.04008575858978243,0.07812329489035655,0.11742242431100194
514,1456704064658204,0.045667321905651,0.07748363441425637,0.11136752030591147
515,1456704064681179,0.054429526378529075,0.0701301600747721,0.10351802777108156
516,1456704064703194,0.06639707957502573,0.05853564951423684,0.09706944508255119
517,1456704064718201,0.08102586080667447,0.04678268525379702,0.09583185883449662
518,1456704064734211,0.09675451254901508,0.03954415131544137,0.10278595064300487
519,1456704064754981,0.11103665509837217,0.04079489504944712,0.11873993170351946
520,1456704064777983,0.12106115849878099,0.05252419650112387,0.14158682254507093
521,1456704064793130,0.12483184583408205,0.07382542654738525,0.16653173089405254
522,1456704064815130,0.1219878278448045,0.10082567799312064,0.18740371687055893
523,1456704064838202,0.11400162612719977,0.12779493322684618,0.19873581720019345
524,1456704064852513,0.10389860665826715,0.14934188959308778,0.19784907217457431
525,1456704064874219,0.09578965628749689,0.16294654215949148,0.1860146317138425
526,1456704064897511,0.09418573006071812,0.17054716597856834,0.16809193252418111
527,1456704064920549,0.10283915156913453,0.17800513418799688,0.15073467160629403
528,1456704064935008,0.12318469120358662,0.19223723240126755,0.13991901705021512
529,1456704064957798,0.15305932754961907,0.21719506556103646,0.13883095782027147
530,1456704064972528,0.1866338326423643,0.25083813585554554,0.1470063573796388
531,1456704064994524,0.2160745610726168,0.28509026791930353,0.16111473238425078
532,1456704065017748,0.23452323131076971,0.30927889231241645,0.1769378241134577
533,1456704065031963,0.23899769949178737,0.3153537732544787,0.19128626178294741
534,1456704065056043,0.23150438465479947,0.3018234493282006,0.20265088168815232
535,1456704065078187,0.21759764112088228,0.2741411085507845,0.21055701560067022
536,1456704065093189,0.20333623382499164,0.24166407352448283,0.2147573804305661
537,1456704065115144,0.19259766270036036,0.21331758169569473,0.2152246534604883
538,1456704065137873,0.1861627571399196,0.19434372666399946,0.21265422607845857
539,1456704065152352,0.18257132611761356,0.18529628134270548,0.20845769343128956
540,1456704065175353,0.17973011050911747,0.1830112325143889,0.20387675452158674
541,1456704065198742,0.17615440596789125,0.18257085822350308,0.19900841353046797
542,1456704065212494,0.17125811455569181,0.17928813312336456,0.19281697856457672
543,1456704065235160,0.16481713842571913,0.17008512031857637,0.18430652722708404
544,1456704065258034,0.15628493584527725,0.15409449698693367,0.17388277856235976
545,1456704065272706,0.14470561610886376,0.132651978388148,0.16365411455123985
546,1456704065294701,0.12939529867648292,0.10885742684964979,0.1562549001064349
547,1456704065317963,0.11078748407861018,0.08671360098619794,0.15299426964527976
548,1456704065332919,0.09064833864804539,0.06988711957670053,0.15273896678986426
549,1456704065354909,0.07145629735792336,0.06044815621173184,0.15246684758952664
550,1456704065377908,0.05542227052214997,0.05817029947958875,0.14921873827608934
551,1456704065392915,0.043760831506342905,0.06078264820333879,0.14209734207730443
552,1456704065414877,0.03651794831723248,0.06505599916069883,0.1328727214220402
553,1456704065438152,0.032910797056765875,0.0681476378886429,0.12479158244179003
554,1456704065452393,0.03188457921105609,0.06853657799144552,0.12047967218344478
555,1456704065476387,0.032503105089062845,0.06619663375849927,0.12030756393135306
556,1456704065497389,0.03396826245324143,0.06211792230848881,0.12207408594207732
557,1456704065521389,0.035414551902997714,0.05755888055963927,0.12200630396423352
558,1456704065534984,0.03583778675838203,0.05340389232583612,0.11648395620078633
559,1456704065557996,0.03439129217878676,0.04986827607805775,0.10368945324393719
560,1456704065580997,0.030946658200677178,0.046631450552084605,0.0845212570491338
561,1456704065595203,0.026577959017749713,0.04328218171443299,0.06253271272037936
562,1456704065618172,0.023656695257142653,0.03980399030038782,0.04309054171084345
563,1456704065640828,0.025445547070397936,0.03685311027251649,0.032078473792086865
564,1456704065655169,0.03526108680773112,0.035746145195916255,0.03436730456244042
565,1456704065678139,0.05535634188222914,0.03818889452712056,0.05222685788888078
566,1456704065700799,0.08574260307935737,0.04579077685890578,0.08399622957540753
567,1456704065715071,0.12334511603728082,0.0594470684698197,0.1235506208044713
568,1456704065737800,0.16205302400431784,0.07879186129134534,0.16117493272676542
569,1456704065761126,0.1940545175205089,0.10201153303692348,0.1861372592830019
570,1456704065775124,0.2122484461920182,0.12620269096714828,0.19049891812115863
571,1456704065797055,0.21285536058223908,0.14815967010091863,0.17280683126665033
572,1456704065820063,0.19709992230713339,0.1652242707150461,0.13991062224925913
573,1456704065834886,0.17118918624431612,0.175890257524783,0.10575126685491006
574,1456704065858121,0.14454826959887523,0.18017714436512203,0.08734198485946505
575,1456704065881115,0.12696495173243091,0.1799934581834404,0.0993387287038332
576,1456704065895120,0.12560844132994262,0.1794829733741159,0.14892872686779404
577,1456704065918159,0.14280646273700973,0.18481886867305705,0.2325102113477739
578,1456704065941128,0.17522055353273794,0.2026762530702227,0.33525791578040137
579,1456704065954142,0.2148024623249799,0.23725184536939087,0.43415859956650027
580,1456704065977143,0.25148067872192054,0.28702588181053734,0.5042178107889694
581,1456704066001158,0.2767612753072832,0.3433882657359455,0.5262946658440623
582,1456704066015139,0.28669448081930543,0.3927227950837333,0.4938613736970659
583,1456704066037931,0.2826859574031485,0.42158337247893096,0.4157028099172387
584,1456704066061226,0.26974830740425815,0.4224424858732953,0.3129268131361707
585,1456704066075227,0.25336608159007834,0.3967847067520105,0.21144606275310207
586,1456704066098229,0.23693391866153765,0.35376634255802747,0.1335018189184582
587,1456704066120562,0.22103425278699798,0.3053270005324286,0.09186630502286613
588,1456704066135067,0.20436048483525082,0.26070824209857596,0.08829648450799177
589,1456704066158152,0.18521596780507057,0.22346731698301192,0.1155513207240174
590,1456704066180081,0.16269648448553223,0.1922257802176585,0.16116841788366185
591,1456704066195152,0.13723802776758168,0.16391589422787253,0.21130118001392492
592,1456704066218153,0.1105647850254835,0.13696925315471425,0.25371184183422085
593,1456704066240634,0.08523332665276576,0.11249202165311131,0.27976508284498663
594,1456704066254383,0.06404450404555345,0.09322102881762707,0.28549290083716
595,1456704066277390,0.049483606707436095,0.08149237775078025,0.27167965140332684
596,1456704066308652,0.04315235053686713,0.07769843325744243,0.24293574149729347
597,1456704066314385,0.04517307123778167,0.0799946337990411,0.20603800681237508
598,1456704066337604,0.05379797250134856,0.08513018433491636,0.16809638758254986
599,1456704066361110,0.06561653375971195,0.08976315089151533,0.1350444753828445
600,1456704066375112,0.07654223176804105,0.091566250874778,0.11066001536301678
601,1456704066398123,0.08324506272502329,0.08967894510351143,0.09614242738829216
602,1456704066421147,0.08427650188964578,0.0844448319083323,0.09026823052754844
603,1456704066437163,0.08023844814192971,0.0767416523208619,0.09009431069692653
604,1456704066458176,0.07298734116843679,0.06738734003886555,0.09200934952694799
605,1456704066480922,0.0645023249204173,0.05696819721071654,0.09279868369790152
606,1456704066495169,0.05613849813891346,0.046080515939181194,0.09040824835927429
607,1456704066518173,0.048548628712411675,0.035683698592015915,0.08424713256621788
608,1456704066540934,0.04203457826356631,0.027231238657578153,0.07504570656540195
609,1456704066555143,0.03686676516158539,0.022420101972330842,0.06438802271033879
610,1456704066578172,0.033275290642739874,0.022602587204872644,0.0540928506326745
611,1456704066601136,0.03119544463457504,0.028065943577842263,0.045694563256168066
612,1456704066614945,0.03012560708437117,0.03751173801608799,0.04027643362347713
613,1456704066638038,0.029393272694675062,0.048099208387930484,0.038701904105236634
614,1456704066660545,0.02877630842332241,0.05625432221073882,0.04197639547141339
615,1456704066675258,0.02906765495859006,0.059079134341411266,0.05130909535157356
616,1456704066697260,0.03207853589176233,0.05577975541914734,0.06757248587087986
617,1456704066721260,0.03985552679891527,0.048353677611229426,0.09024827540373967
618,1456704066742865,0.05339890126904157,0.041046167367240594,0.11644953155203472
619,1456704066757071,0.07158695858032914,0.03868963609731738,0.14090458534923822
620,1456704066780067,0.09104201352166852,0.0446167496961814,0.15748654069911755
621,1456704066803133,0.107225418973148,0.05908514404210941,0.16190040481408255
622,1456704066818094,0.1163016153971921,0.07897896037297535,0.15410855920873925
623,1456704066839865,0.11676808953581444,0.09901887729616746,0.13894971768167264
624,1456704066863378,0.11001952058537656,0.11402713959106729,0.12447761482829081
625,1456704066877639,0.09977874790774126,0.12132783570888725,0.11892473998375856
626,1456704066899615,0.09095264692615002,0.12237233707660645,0.12774689113492815
627,1456704066922599,0.08848510152684794,0.12301736858469374,0.15180356454405508
628,1456704066938105,0.09642527956137208,0.1322381872479412,0.18715061254001317
629,1456704066959962,0.1171902770258926,0.1594114807891074,0.22658272372768873
630,1456704066983999,0.15105321247273115,0.21079941519580617,0.26255288257067066
631,1456704066997633,0.19602677006422828,0.28636605994678127,0.2901976175248061
632,1456704067019967,0.24823628431023403,0.3782008139330491,0.30868200198439555
633,1456704067042977,0.3025985945243413,0.47148706871067875,0.31986701128490985
634,1456704067057521,0.3534878690702268,0.5482292290036633,0.32517764124193366
635,1456704067079485,0.39524987466998657,0.592851126614523,0.32309620990219917
636,1456704067102648,0.4227166334414718,0.5975580820853076,0.30947432170377287
637,1456704067117749,0.4319835670316647,0.5649029787368771,0.28075843536152817
638,1456704067139743,0.42143806805459644,0.506142395721366,0.23787089070201886
639,1456704067162715,0.3925003192763348,0.4362893854405949,0.18787475148302843
640,1456704067178018,0.3494155425165615,0.36859043731386537,0.14215888344434943
641,1456704067199980,0.29810101507029285,0.3110802031708436,0.11223493885547024
642,1456704067222753,0.2447656685237033,0.26615044984694786,0.10545930920825605
643,1456704067237752,0.19492021802588405,0.23222526442436686,0.12255477562437354
644,1456704067259740,0.1528028948338774,0.20596641111205552,0.1575912120792018
645,1456704067282777,0.12099460488148768,0.1839998788815828,0.20008901420781386
646,1456704067297742,0.10016907170538464,0.16397079078887408,0.23840295387053068
647,1456704067319744,0.08910027941217558,0.14501539705510386,0.2633134547471132
648,1456704067343029,0.08507429797218163,0.1276468868847011,0.2706399716662739
649,1456704067358055,0.08473945102846606,0.1130719170372743,0.26186974577289857
650,1456704067379804,0.08516411457366405,0.10221817399489486,0.24256574634604477
651,1456704067403024,0.0846377301903975,0.0950385369591129,0.21946229243522555
652,1456704067419052,0.08284497328908932,0.090584287830507,0.19779534856990372
653,1456704067439814,0.08041970429188232,0.08776128476537655,0.1799633974368229
654,1456704067463021,0.07818177905561129,0.08606846019064368,0.16558768570429214
655,1456704067478068,0.07641986916749456,0.08565281853396597,0.15243316777075994
656,1456704067500111,0.07455100266647208,0.0867101372020456,0.13772364236979145
657,1456704067523108,0.07138915171924518,0.08886167951292474,0.11954525233894892
658,1456704067537817,0.06595563845719597,0.0910541685810213,0.09790846966994833
659,1456704067559328,0.05836542301506541,0.09198793044053886,0.07498636153256999
660,1456704067582334,0.050185765164745794,0.09068528534899492,0.05439502409230128
661,1456704067597369,0.04396203844785357,0.08683256626649029,0.0398647967817979
662,1456704067619527,0.04211937575256973,0.08080022848511627,0.033874282581334174
663,1456704067642751,0.04580965177315379,0.07350777443736728,0.036749601424994685
664,1456704067657047,0.05428192591296233,0.06635764109227861,0.046534408039649165
665,1456704067679141,0.0650752306563479,0.061244847121617776,0.05969265739610443
666,1456704067703047,0.07495674971269568,0.060365497880255005,0.07241021619691461
667,1456704067718062,0.08119989102182235,0.06557385929188747,0.08195984216826739
668,1456704067740277,0.08261761149189645,0.07744667877676525,0.0874681554151207
669,1456704067762465,0.07986571836993447,0.09459089614379723,0.08967870228531188
670,1456704067777548,0.07492284794006777,0.11367614564810588,0.08990004768348457
671,1456704067799506,0.07008856552521225,0.13028556303086536,0.08887415865819602
672,1456704067830525,0.06701678165555369,0.14030839501488918,0.08635893873155112
673,1456704067837516,0.0661765834732394,0.14135819808673306,0.08169897403778205
674,1456704067859595,0.06688328145989234,0.13357428703458882,0.0749131809696631
675,1456704067882447,0.06780897743054792,0.11935478596548439,0.06741276031833403
676,1456704067897316,0.06769603205816273,0.1021827566972649,0.061728229153249964
677,1456704067919600,0.06591096623109714,0.08527160570304959,0.06036430024731258
678,1456704067942825,0.06258963358633497,0.07072294044645179,0.06449732917678327
679,1456704067957669,0.05840069763907068,0.059395988674378765,0.07328114304798632
680,1456704067979339,0.05416010167491271,0.051267952261524155,0.08415375913819953
681,1456704068002346,0.05050900969993992,0.045944813062132925,0.09404067905444857
682,1456704068025340,0.04774143499619507,0.043043918178364976,0.10090020765317254
683,1456704068039858,0.045795893158236615,0.042296469921702974,0.10478606656117755
684,1456704068062438,0.04438608617370908,0.04340088484590825,0.1077288721637102
685,1456704068085642,0.04318674983775198,0.04584206883261103,0.11237729498452766
686,1456704068099588,0.04196921360727315,0.048906385099948754,0.12019433444633949
687,1456704068122667,0.040642494897062245,0.05191000880870395,0.1304017749060484
688,1456704068145626,0.039235296385489185,0.05444070560811533,0.14035766420324952
689,1456704068159884,0.037864242553472184,0.05642641220971347,0.1469865603120008
690,1456704068182876,0.036686652145924016,0.05803285515529592,0.14818819746874884
691,1456704068205907,0.035823805125079065,0.05951933554494768,0.14342221294450175
692,1456704068219944,0.035289763582048446,0.06113846875357436,0.13351811110330777
693,1456704068242517,0.03499194725792562,0.06306746373089385,0.12026447812169805
694,1456704068265529,0.03482772341484692,0.06535537348274359,0.1061215180950436
695,1456704068279528,0.034832703772599005,0.06793424716478547,0.09396456769523076
696,1456704068302811,0.03530488064750948,0.07072786092865323,0.08663019950481049
697,1456704068325688,0.03683470814091761,0.07378014006689879,0.0861989833751327
698,1456704068339993,0.040187820046074685,0.07726083179466903,0.09318740414068027
699,1456704068362441,0.04602565355756026,0.08129754448443499,0.10600242964113367
700,1456704068385734,0.05453315404013153,0.08575687709241328,0.12102713509653544
701,1456704068399726,0.0651040519044911,0.09017787245284718,0.13350158204548795
702,1456704068422446,0.07623292139726397,0.09398491660703455,0.13903791442418836
703,1456704068445600,0.08570001595267429,0.09693937553754109,0.1353079605488624
704,1456704068461301,0.09108346917328349,0.09955715060779076,0.12326521808325956
705,1456704068483265,0.09055090537980075,0.10302394092252162,0.10728610145629688
706,1456704068505600,0.08368848948499921,0.10832104282402277,0.09389887903414718
707,1456704068519559,0.07193698077620908,0.11495894832501857,0.08932901304881417
708,1456704068543084,0.0582761264358986,0.12033148985376406,0.0967646998905425
709,1456704068565674,0.04619610067357756,0.12049751291052307,0.114632964648955
710,1456704068579638,0.03844685526101734,0.11218075374663114,0.1369065605335955
711,1456704068603004,0.03619660484590383,0.09479601407738839,0.15553422125334143
712,1456704068625714,0.038955910911806856,0.07120833510852134,0.1639267544645131
713,1456704068639702,0.04516008478116716,0.04677633046298518,0.15974379230135563
714,1456704068662180,0.05296609049726296,0.027292251020320322,0.14556889403974424
715,1456704068685440,0.06079925367733196,0.016919711442945233,0.12728341862744721
716,1456704068700178,0.06746337004256645,0.016978568076426236,0.11120828892757045
717,1456704068723178,0.07198624025265242,0.025845122807537268,0.10155395101045384
718,1456704068744480,0.07353518035552221,0.03977784063710667,0.09923460271887109
719,1456704068759795,0.07160815718903894,0.054287764100264396,0.10219549227131178
720,1456704068782655,0.06642630637767673,0.06563780445829803,0.10677931848759227
721,1456704068804795,0.05923135702731573,0.07204522824535319,0.10951550135320082
722,1456704068819796,0.0521630516252188,0.07418054958208983,0.10870792089454664
723,1456704068842799,0.04759183049668111,0.07471048178358473,0.10514628025575393
724,1456704068864797,0.04712336416608213,0.0769706203645574,0.10148241893666646
725,1456704068879798,0.050763328130696776,0.08325247238959436,0.10049355345642595
726,1456704068903092,0.05671408012416588,0.09341814893945093,0.10318640165412556
727,1456704068925064,0.061938018073452276,0.10445886359920628,0.10783663057969506
728,1456704068939822,0.06320647548538662,0.11125222776349036,0.1104669942345222
729,1456704068962839,0.05816810019720869,0.10835039606248024,0.10647531838779804
730,1456704068984840,0.046072625211555564,0.09225894217959807,0.0926933505897243
731,1456704069000010,0.02798452219282136,0.0633407715731651,0.06906795831863602
732,1456704069023018,0.006482414281927839,0.02634718856405876,0.03917082717023278
