,timestamp,emg1,emg2,emg3,emg4,emg5,emg6,emg7,emg8
0,1456704184804851,0.006970947230267305,0.049951283255537694,0.029792107227036364,0.03248519337070819,0.0,0.005413972763897877,0.0017879169496693302,0.005183707739025027
1,1456704184804851,0.018611774860687793,0.09764472566656696,0.06455276247682311,0.04275914305128536,0.01313838549842955,0.02930130426525104,0.012193591672889421,0.019152123795752422
2,1456704184805566,0.030065341744105037,0.1424934946196493,0.09790578056696261,0.05216569499465532,0.02670472273091234,0.05307343123614503,0.022748434467105453,0.03277932497363353
3,1456704184805566,0.041219407901405165,0.18431149459755936,0.12958063285918753,0.06066649097329386,0.040573342538650484,0.07661261024777691,0.03333690641343847,0.04593377237517263
4,1456704184806567,0.05196738307779408,0.22295047409384947,0.15933733779605738,0.06823536295473247,0.05461622135268808,0.09980711922190874,0.04384629605303499,0.058492868140143685
5,1456704184806567,0.06221046454723912,0.25830189657694674,0.1869723627228597,0.07485889204587916,0.06870556229918857,0.12255294026849776,0.05416890913874392,0.07034553178677219
6,1456704184807567,0.07185955340420552,0.29029816554759885,0.21232337867069145,0.0805367621340565,0.08271611512828093,0.14475514659140465,0.06420399128376296,0.0813944220241662
7,1456704184807567,0.08083689886343544,0.31891317736024805,0.23527272614746875,0.08528189572458197,0.09652716119831607,0.16632894935263462,0.07385934065902998,0.09155774191850097
8,1456704184818887,0.08907742661035602,0.34416222793403456,0.25574951639481314,0.08912036319003976,0.11002412261302348,0.18720037899876732,0.08305259536100112,0.10077058849367466
9,1456704184818887,0.09652971468993937,0.36610132818280405,0.2737303446829435,0.0920910546729394,0.12309979064385887,0.20730658679284086,0.09171220187035621,0.10898582576566376
10,1456704184826568,0.10315659014319507,0.3848259795892028,0.289238653203993,0.09424510203362568,0.13565520393378194,0.22659575663368292,0.09977808113352288,0.11617447180541357
11,1456704184826568,0.10893533009690168,0.4004694294348011,0.30234284512973436,0.09564504028672051,0.14760023901673913,0.2450266283013289,0.10720200803181011,0.12232559721849467
12,1456704184832569,0.1138574631766732,0.413200378893089,0.31315328987769614,0.0963637036441647,0.1588539985443896,0.26256766781214724,0.11394771319345189,0.12744573923775554
13,1456704184832569,0.1179281855563249,0.42322008278955475,0.32181836304286443,0.09648285953723344,0.16934508920349642,0.2791959749630327,0.11999070808603272,0.13155784925101227
14,1456704184847571,0.12116543032928416,0.43075878335573003,0.32851965441325837,0.0960915945226666,0.17901187167388033,0.29489606183947004,0.12531783080735368,0.13469981457328548
15,1456704184847571,0.12359865026463467,0.4360714618561666,0.3334664765539828,0.09528447607874904,0.18780274530136554,0.30965863976083036,0.12992651879628594,0.13692262262095029
16,1456704184858256,0.1252673853123168,0.4394329477779895,0.3368898186004575,0.09415952102392981,0.19567650366220685,0.32347951644706485,0.13382383948382773,0.13828825969893813
17,1456704184858256,0.1262196894771279,0.4411324809271355,0.3390359104850617,0.09281600797299971,0.20260276394798507,0.3363586555814131,0.13702534232413263,0.1388674528722793
18,1456704184862594,0.12651049077927082,0.44146787791476255,0.3401595838579502,0.0913521832042634,0.20856243818584652,0.34829941312214396,0.13955381907961042,0.1387373699304287
19,1456704184862594,0.12619995251120364,0.4407394952076231,0.3405176210901974,0.08986292396164486,0.2135481877205165,0.3593079468071733,0.1414380624236902,0.13797938724432435
20,1456704184878611,0.12535189452724776,0.43924417495822154,0.34036226009726567,0.08843743362323543,0.21756478886829955,0.36939278494362254,0.1427116969150946,0.13667701839141755
21,1456704184878611,0.1240323249165955,0.4372693071632434,0.3399349807532464,0.08715704805754716,0.2206293323665887,0.3785645193992945,0.14341212928157349,0.13491407280424456
22,1456704184886606,0.12230812716797528,0.4350870861057251,0.3394606679143409,0.08609323433746414,0.22277117716000208,0.3868355557280698,0.14357963605745344,0.13277309001778045
23,1456704184886606,0.1202459405165637,0.43294902338921315,0.3391422504635228,0.08530586110288672,0.2240315862668451,0.39421983654718323,0.14325658539601685,0.1303340738832133
24,1456704184916606,0.1179112566843497,0.4310808101233524,0.3391559533474259,0.08484181189091843,0.22446300236855274,0.4007324790948533,0.142486781821676,0.12767353048749533
25,1456704184916606,0.11536773750356395,0.4296776733549727,0.3396473414441337,0.08473399887516138,0.22412797591833034,0.4063893300221015,0.14131492365415946,0.12486379177512237
26,1456704184923612,0.1126767410979738,0.4289004159392942,0.340728346228206,0.08500081683553737,0.22309782009410578,0.4112065078860691,0.1397861627528585,0.12197258669443417
27,1456704184923612,0.10989703144563227,0.4288723442599141,0.3424754360337803,0.08564605793425305,0.22145110729052994,0.41520004646836756,0.13794574994501657,0.11906280925967462
28,1456704184924606,0.10708463543097708,0.42967727225907554,0.3449290316591025,0.08665928887583271,0.2192721267641382,0.41838575730565797,0.13583874042380648,0.116192431994412
29,1456704184924606,0.10429280206495256,0.43135874970084376,0.34809420182554834,0.08801667503241543,0.21664939778257147,0.42077939713592705,0.13350972688620608,0.1134145211052994
30,1456704184925608,0.10157201352817098,0.4339205987515835,0.35194260738180333,0.08968222179357667,0.21367429101305555,0.4223971647310076,0.1310025656263104,0.1107773204583337
31,1456704184925608,0.0989700025589508,0.43732875668759347,0.3564155970066513,0.09160939035720618,0.2104397650034436,0.423256482898079,0.12836006112963985,0.10832438102900431
32,1456704184938613,0.09653174618994334,0.4415143308543376,0.3614282903954466,0.09374303095087692,0.207039183931485,0.42337696883684445,0.1256235796501171,0.10609471897073527
33,1456704184938613,0.09429942282700654,0.44637770468456167,0.36687442860272895,0.09602156036679563,0.20356515510493636,0.42278147093463525,0.12283257774234299,0.1041229871844256
34,1456704184945609,0.09231232730265253,0.45179350530506895,0.3726317372423862,0.09837929591066416,0.20010831545945584,0.4214970491530422,0.1200240601447906,0.10243964372475296
35,1456704184945609,0.09060673699695716,0.4576162402471065,0.378567536231879,0.10074885030398115,0.19675601000539816,0.4195557924483422,0.11723201267977787,0.10107109986977542
36,1456704184952608,0.08921572089649756,0.46368641197064103,0.38454433280676514,0.10306349533940648,0.1935908424152412,0.4169953967125521,0.1144868734877782,0.10003983230256017
37,1456704184952608,0.08816888882208919,0.46983691528913124,0.3904251515362354,0.10525941380368102,0.19068912782156824,0.4138594660000281,0.11181510306211173,0.09936444572591886
38,1456704184967615,0.08749208800564444,0.4758995105421335,0.3960783895937849,0.10727777394596305,0.18811932235995835,0.41019754134275005,0.10923889667996757,0.0990596760971692
39,1456704184967615,0.08720706316791592,0.4817111406222167,0.40138203430219493,0.10906657431319822,0.18594053179712844,0.4060648985942309,0.10677606140375052,0.0991363335435314
40,1456704184975620,0.0873311004199539,0.4871198293652634,0.40622713023263096,0.11058221589831986,0.18420121026273575,0.40152217836021536,0.10444005882724676,0.09960119458904322
41,1456704184975620,0.08787667466021983,0.491989884446672,0.41052042930619,0.11179076253748992,0.18293815013840564,0.3966349058886732,0.10224019648183359,0.10045685949452247
42,1456704184982620,0.08885111664589404,0.4962061566375921,0.4141862112734287,0.1126688541705771,0.1821758405156602,0.39147293411220657,0.10018193791783891,0.10170159233353654
43,1456704184982620,0.09025631052256558,0.49967718813337086,0.41716732930295986,0.11320424732935752,0.18192624302936938,0.38610982005561323,0.09826729510225167,0.10332916287940398
44,1456704184998626,0.09208842623080613,0.5023371864231466,0.41942559110469496,0.11339597337384472,0.18218900373886482,0.38062213018912877,0.09649526540698777,0.1053287102457727
45,1456704184998626,0.09433768765682496,0.5041468395334946,0.4209415960432536,0.11325412167966763,0.1829520856377899,0.3750886553652587,0.09486227889331517,0.10768464543328829
46,1456704185005623,0.09698818097281654,0.5050930311826196,0.42171411452347257,0.11279926756602521,0.18419277087714636,0.36958950253348505,0.09336263206591433,0.11037660420204687
47,1456704185005623,0.10001771793177926,0.5051875475514626,0.4217590601089588,0.11206157525204671,0.1858789540521093,0.364205030844979,0.09198889980253745,0.11337945707433787
48,1456704185012623,0.1033977808689535,0.5044649045527834,0.42110810737973353,0.11107961892241665,0.18797063133309083,0.3590146124855387,0.09073232921074287,0.11666338267583386
49,1456704185012623,0.10709358451557778,0.5029794492314068,0.419807043478407,0.1098989785978045,0.19042147822433822,0.35409520657335347,0.08958322085572923,0.12019401392455371
50,1456704185027751,0.11106429075147235,0.50080189211511,0.417913963924368,0.10857067541640775,0.19318039940502116,0.34951973099350175,0.08853129573393663,0.12393267017876383
51,1456704185027751,0.11526340370539277,0.49801542048478586,0.4154974010630375,0.10714951043817769,0.19619294103145943,0.34535521928220864,0.08756603789685397,0.12783668754921365
52,1456704185035623,0.11963935528822277,0.49471153820903213,0.4126344210523408,0.10569236634233603,0.19940249218149,0.34166077803762135,0.08667699953762172,0.1318598533700497
53,1456704185035623,0.12413627218417977,0.4909857855784377,0.4094086850715088,0.10425652732186,0.20275125640862818,0.33848540727906795,0.08585406006949285,0.13595294315796055
54,1456704185042624,0.1286949032611471,0.48693351878552504,0.40590846631912203,0.10289806990183198,0.206181017488226,0.3358657803165737,0.08508764065475813,0.14006435252434662
55,1456704185042624,0.13325368341643362,0.4826459591119812,0.4022246313736865,0.1016703746677047,0.20963374136089555,0.33382408589161106,0.08436888429797035,0.14414081288475156
56,1456704185058631,0.13774990865030584,0.4782067275748269,0.39844860456368114,0.10062280452787899,0.21305206157394282,0.3323660329374697,0.08368981288054284,0.14812817955579285
57,1456704185058631,0.14212098892163522,0.47368905152749474,0.3946703310639783,0.09979958750815263,0.2163797033440073,0.3314791321578593,0.08304346675162436,0.15197228653789263
58,1456704185065632,0.14630573043141892,0.469153777911379,0.3909762558568966,0.09923892930316161,0.21956191011810244,0.33113139864562385,0.08242402590417759,0.15561987270179567
59,1456704185065632,0.15024558853846992,0.4646482619321694,0.38744735515561146,0.09897236352982643,0.22254593660742908,0.33127064511390314,0.08182690835106407,0.15901959164253784
60,1456704185072636,0.15388583916498785,0.4602061180619438,0.3841572825229774,0.09902433030734004,0.2252816600390151,0.3318245356040591,0.08124883995950453,0.1621231142084289
61,1456704185072636,0.15717663975994312,0.4558477279690629,0.3811706957701415,0.09941196131362282,0.2277223398263821,0.3327015370141621,0.0806878890432863,0.16488631763647577
62,1456704185087637,0.16007397331523884,0.45158131934092915,0.37854180511534097,0.10014504287029093,0.22982553050163967,0.33379284648998314,0.08014345832322936,0.16727053383501284
63,1456704185087637,0.1625404735781068,0.4474043873456219,0.37631315559574136,0.10122612534544245,0.23155412883637946,0.33497530110913554,0.0796162271543797,0.16924380726659205
64,1456704185095638,0.1645461184839834,0.4433052394532854,0.37451465341388157,0.10265074523355038,0.23287751548318292,0.33611520400758477,0.0791080403116837,0.17078209326380694
65,1456704185095638,0.16606876944901536,0.4392644978651142,0.3731628550348311,0.10440772613827488,0.23377273139124238,0.3370729288003132,0.0786217475378483,0.1718703144797019
66,1456704185102639,0.16709453958747925,0.4352564709110226,0.37226053261546377,0.10647952795342817,0.23422560746658982,0.33770809011867187,0.07816100732728534,0.17250319190473118
67,1456704185102639,0.16761799027918534,0.4312503766305602,0.3717965129638131,0.10884262141443969,0.234231747511265,0.3378850050253584,0.07773007340261312,0.1726857799266511
68,1456704185118639,0.16764216891023892,0.42721144535161176,0.3717457867509661,0.11146787795828347,0.23379725584555175,0.3374781393035748,0.07733358082439272,0.17243365820926806
69,1456704185118639,0.16717850268807907,0.4231019408636126,0.37206990559386655,0.11432097739952407,0.2329390990899368,0.33637723481189635,0.07697634349050018,0.17177275702272846
70,1456704185125640,0.16624655649082823,0.4188821390942658,0.37271770192164405,0.11736284207206428,0.23168499407365395,0.3344918262590002,0.07666317060014115,0.17073881001592195
71,1456704185125640,0.16487365238478313,0.41451131038474054,0.3736263629408259,0.12055010791583076,0.23007273707779707,0.33175487250228225,0.07639870920624464,0.1693764431893848
72,1456704185140641,0.16309433884357447,0.4099487699625906,0.3747228744010451,0.12383564763093065,0.22814895169194394,0.3281252790858854,0.07618732200102905,0.16773793026992545
73,1456704185140641,0.1609496937654884,0.40515507095751746,0.3759258318922862,0.12716916752608573,0.2259673193024981,0.3235891945337747,0.07603300984667064,0.1658816735621583
74,1456704185147641,0.1584864508663844,0.400093395612993,0.3771475909126831,0.13049789934625244,0.22358642692493536,0.3181600913461064,0.07593938411772197,0.16387049504577023
75,1456704185147641,0.15575595013494561,0.3947311559342141,0.3782966907766792,0.13376739750287386,0.22106739401409994,0.3118777413318402,0.07590968516372162,0.16176983422042773
76,1456704185155647,0.15281292270184782,0.3890417631937698,0.3792804596516298,0.13692243622856154,0.2184714283566844,0.3048062433251724,0.07594683361813363,0.15964594660994824
77,1456704185155647,0.14971412963213324,0.3830064851075797,0.3800077033697472,0.13990798788606307,0.21585743627871437,0.29703127931793144,0.07605349536829835,0.15756418779532627
78,1456704185163148,0.14651688972731852,0.3766162899329582,0.38039139133447547,0.14267025689732915,0.21327979623737642,0.28865678887390606,0.07623214197620114,0.1555874575583837
79,1456704185163148,0.1432775536926089,0.36987357226670214,0.3803512642546461,0.14515774204774728,0.21078640143044025,0.2798012624810256,0.07648509561501975,0.15377486546189828
80,1456704185178653,0.14005000266838616,0.3627936524432751,0.3798162985949251,0.14732229791620702,0.2084170743706698,0.27059384610477244,0.07681455718443946,0.15218066172995035
81,1456704185178653,0.13688426047480393,0.35540593908259654,0.3787269734620084,0.14912015967158124,0.20620244261241186,0.2611704204775121,0.07722262441665075,0.1508534594691615
82,1456704185185653,0.13382530832497197,0.34775465177887793,0.37703728629686706,0.1505128856301558,0.2041633379074061,0.25166978854242694,0.0777113113687709,0.1498357580864384
83,1456704185185653,0.13091217803572539,0.339899017331715,0.37471643971026053,0.15146816575135924,0.20231074345485545,0.24223008673220853,0.07828258008449575,0.14916375924552364
84,1456704185192753,0.12817737585435673,0.33191286743115206,0.3717500835725979,0.15196045110478879,0.20064626848799239,0.23298552678208462,0.07893838871235334,0.14886744373247593
85,1456704185192753,0.12564665715375983,0.3238835797236404,0.3681409830172422,0.15197138211102793,0.1991630837648345,0.22406356410101413,0.07968074933502803,0.14897085529037224
86,1456704185207655,0.12333913831801649,0.3159103384961621,0.3639090219441008,0.15149002095450018,0.19784721888163587,0.21558256853291086,0.08051177616912854,0.14949252180784028
87,1456704185207655,0.12126770306895159,0.3081017606306887,0.3590905258574741,0.15051291032027028,0.19667911316187628,0.20765003997025377,0.08143369539473301,0.15044593477287455
88,1456704185215740,0.11943964119359678,0.3005730192184362,0.3537369594956436,0.14904398376138978,0.19563532338864728,0.20036136627365528,0.08244878769888515,0.1518400007857829
89,1456704185215740,0.11785744889077969,0.2934426620069157,0.3479131084955151,0.14709435258809653,0.19469030795961426,0.19379907152138304,0.0835592463529158,0.15367937689633793
90,1456704185230661,0.11651971911210207,0.2868293400353475,0.34169489369777745,0.14468199624372277,0.1938182131481387,0.18803245830435916,0.08476695211983973,0.15596461683104546
91,1456704185230661,0.1154220542088032,0.28084863789732734,0.33516698431529884,0.1418313829573809,0.19299458163390804,0.1831175175406896,0.08607318176247108,0.15869209605597484
92,1456704185238851,0.11455794063549461,0.2756101496238327,0.3284203608071397,0.13857303982425184,0.1921978942948291,0.1790969732091014,0.08747827370723334,0.16185373837157027
93,1456704185238851,0.11391953573785181,0.27121489207533356,0.3215499376876841,0.13494307855864185,0.19141084941141173,0.1760003556519623,0.08898127363681371,0.16543661026329712
94,1456704185245656,0.11349832690797934,0.2677531058605687,0.31465231084264284,0.1309826707270203,0.19062128334651185,0.17384404916776974,0.09057957702585116,0.16942246782158962
95,1456704185245656,0.11328563012562468,0.26530246501139443,0.3078236583651452,0.12673745849938978,0.18982265109385202,0.17263131478596144,0.09226857615361217,0.1737873412322945
96,1456704185252851,0.11327289869711671,0.2639266895405185,0.3011578055347197,0.1222568857406305,0.18901401801779286,0.17235232855318328,0.0940413099312423,0.17850123400233184
97,1456704185252851,0.11345181933474108,0.26367452225414095,0.29474446204560173,0.1175934393842533,0.18819955998586266,0.1729842983092334,0.09588811414805046,0.1835280006201418
98,1456704185268108,0.11381418812458825,0.2645790062065556,0.28866764406747925,0.11280180081448783,0.1873876192025054,0.174491733538117,0.09779628226485558,0.18882544769444312
99,1456704185268108,0.11435158582953536,0.2666570018232767,0.2830042985387433,0.10793791850972101,0.18658941075718624,0.17682694240666294,0.09974976642409356,0.19434568327629065
100,1456704185275610,0.11505490430007474,0.2699089113037972,0.27782315228273524,0.10305802208010485,0.18581751222695309,0.17993081458165133,0.10172896198265863,0.20003572175012713
101,1456704185275610,0.11591380107875257,0.27431860861492585,0.273183812763965,0.09821760108674227,0.18508428716890993,0.18373392329603896,0.10371061934177678,0.2058383421408657
102,1456704185290610,0.11691616850976333,0.2798535866378252,0.269136145433832,0.09347037168569608,0.18440038952822455,0.18815795529748766,0.10566791740734585,0.2116931953876824
103,1456704185290610,0.1180476969276225,0.2864653288901763,0.2657199414428421,0.08886725521679163,0.18377347286564738,0.19311745505788092,0.10757072071886514,0.2175381488823238
104,1456704185298609,0.11929159401017504,0.2940899019505563,0.26296486775014505,0.0844553979529692,0.18320719386930853,0.19852184421483043,0.10938603066809502,0.22331083080478448
105,1456704185298609,0.12062849954231365,0.3026487546888264,0.26089066044084686,0.08027726826394142,0.18270056329663256,0.20427764551092112,0.11107863045580768,0.22895029688201185
106,1456704185305612,0.12203661160052191,0.31204970481762134,0.25950749283441926,0.07636987172964292,0.18224766501212483,0.21029080770410372,0.11261191322488716,0.23439870922937645
107,1456704185305612,0.12349201952426526,0.3221880882801127,0.2588164423251366,0.07276412252986621,0.18183773624368654,0.21646900395425875,0.11394887190092154,0.23960290637387888
108,1456704185312365,0.12496922024810839,0.3329480349999112,0.258810000015708,0.06948440027981766,0.181455579254981,0.22272376875734978,0.115053215458209,0.2445157529971873
109,1456704185312365,0.1264417766751055,0.344203816947512,0.2594725951738403,0.06654830774798347,0.1810822559149383,0.22897234937614622,0.1158905601937167,0.2490971774688267
110,1456704185327563,0.1278830623827786,0.35582121007095424,0.2607811179850947,0.06396663006521437,0.18069600160858734,0.2351391755674827,0.1164296300793578,0.253314828960518
111,1456704185327563,0.12926702928719475,0.3676588414082205,0.26270542039353845,0.06174348397007886,0.1802732847589696,0.24115689425041714,0.11664339074655757,0.2571443115143684
112,1456704185335617,0.13056893512151505,0.3795695505459508,0.26520877854311253,0.05987663921778704,0.17978993639047683,0.2469669663645342,0.1165100393391274,0.26056897981496735
113,1456704185335617,0.13176597724340033,0.3914018456971138,0.2682483243946697,0.05835799260869053,0.17922228205143217,0.2525198669124832,0.11601378107928687,0.2635793130829019
114,1456704185358874,0.13283779935329393,0.403001552107452,0.27177548958132025,0.057174174113178024,0.17854822115091373,0.2577749527416532,0.11514534688809591,0.2661719187790432
115,1456704185358874,0.13376686361854712,0.4142137380787146,0.2757365343840169,0.056307261946411696,0.1777482085286489,0.26270006356811465,0.11390224209033023,0.26834824914293515
116,1456704185360120,0.13453870257256262,0.42488497525723445,0.28007324612319157,0.05573558036858765,0.1768060968006164,0.26727090807793735,0.1122887506128069,0.2701131349166482
117,1456704185360120,0.1351420741437986,0.43486594572767134,0.28472387799401133,0.05543455207500688,0.17570980067046169,0.2714702710732301,0.11031573748366177,0.2714732546558691
118,1456704185366119,0.1355690377106245,0.44401434858799127,0.2896243615949357,0.05537757637843736,0.17445175487507122,0.27528707199336216,0.10800029436247119,0.2724356682162836
119,1456704185366119,0.13581495685755007,0.45219799863132876,0.29470977105313956,0.05553690454011545,0.17302915993158388,0.2787153142205422,0.10536526954413282,0.2730065428268241
120,1456704185372788,0.13587842695522365,0.4592979682276486,0.2999159577389106,0.05588448453087583,0.17144403759174995,0.2817529771337016,0.10243872128059332,0.2731901800621267
121,1456704185372788,0.1357611272943551,0.4652116036230112,0.30518123071379605,0.0563927490952126,0.16970313782094013,0.2844009048227126,0.09925332720323879,0.27298841498442145
122,1456704185387788,0.13546760228016522,0.46985524297828757,0.31044794045617485,0.057035322347703296,0.16781774408903855,0.28666174125105975,0.09584576989961092,0.2724004193769126
123,1456704185387788,0.13500497753538188,0.4731664754994588,0.31566382437370843,0.05778761994733859,0.16580341718322594,0.2885389650178477,0.09225610374316687,0.2714229100045236
124,1456704185395585,0.13438261645830055,0.47510581073178804,0.32078297925689764,0.05862731646288716,0.16367970614924954,0.2900360838870887,0.08852709834110178,0.2700507417248875
125,1456704185395585,0.13361172544049665,0.47565766677961563,0.3257663452230285,0.05953465449373648,0.16146984042433252,0.29115604418649654,0.0847035527258785,0.26827785250574504
126,1456704185410788,0.13270491988395205,0.47483062350528504,0.3305816353879274,0.06049257845160496,0.15920039866173144,0.29190089136780495,0.08083157914282278,0.26609851786154365
127,1456704185410788,0.13167576424462796,0.4726569213956096,0.3352027185000191,0.061486692332243645,0.15690093006869787,0.2922716994721883,0.0769578611695965,0.26350885561662785
128,1456704185418786,0.13053829984940418,0.4691912299312531,0.33960852687548526,0.06250505921129859,0.15460349256635034,0.2922687784876382,0.07312889439255907,0.26050849245257357
129,1456704185418786,0.12930657948130164,0.4645087613878197,0.3437815994940594,0.06353787335103107,0.15234207634074573,0.2918921640103898,0.06939021904795938,0.2571022698620202
130,1456704185425785,0.12799423591995382,0.4587028495893082,0.34770638636486045,0.06457704189166338,0.15015189943214619,0.29114238079262705,0.06578565668949894,0.25330184770406555
131,1456704185425785,0.1266141152446969,0.45188213518641734,0.35136745089373284,0.06561571463839007,0.14806858604167827,0.29002144671483593,0.06235656905947506,0.2491270713902354
132,1456704185432580,0.12517800178317326,0.44416750531468246,0.3547477187247764,0.06664779963907476,0.1461272610691783,0.28853405626647466,0.059141162814567654,0.2446069961081722
133,1456704185432580,0.12369645287462938,0.4356889335479396,0.35782692638128055,0.06766749986438261,0.14436160865683292,0.28668886305022107,0.05617386335313892,0.23978048767942553
134,1456704185447580,0.12217874918254985,0.4265823500601422,0.3605804084349396,0.06866890290267189,0.1428029413588858,0.28449976423511847,0.053484774576418474,0.2346963365431331
135,1456704185447580,0.12063294981285454,0.416986637610181,0.3629783265467095,0.06964565151795331,0.1414793124154817,0.2819870656057989,0.05109923261821599,0.22941284151276614
136,1456704185456094,0.11906602572768271,0.4070408100028309,0.36498539758052634,0.07059071774451703,0.14041469032492596,0.27917838092377817,0.04903745428841718,0.22399685573344205
137,1456704185456094,0.11748403767983541,0.3968814070406686,0.36656113190968154,0.07149629588990208,0.1396282146413232,0.2761091141888455,0.04731427805130347,0.2185223328867673
138,1456704185470604,0.11589232926959472,0.38664014435168115,0.3676605563699712,0.07235381990363783,0.13913356217275133,0.27282239693695487,0.04593899678664496,0.21306844935489103
139,1456704185470604,0.11429571864590127,0.3764418804801899,0.3682353784256027,0.07315409924130792,0.138938460367068,0.2693683998168355,0.04491528416138948,0.20771739602458186
140,1456704185486605,0.11269868711113933,0.36640298203628746,0.3682355503396773,0.07388755742291898,0.13904438094378999,0.26580300252893446,0.04424121754813954,0.2025519359480926
141,1456704185486605,0.1111055718096804,0.3566301566317398,0.36761119998136466,0.07454455137076378,0.1394464343167061,0.2621858822975011,0.04390940047526973,0.19765282485567806
142,1456704185488605,0.10952076909596731,0.34721978705767115,0.3663148879383406,0.07511574723522502,0.14013347089059805,0.25857815773430115,0.043907187646486656,0.19309619901128774
143,1456704185488605,0.10794894806949562,0.3382577619804202,0.36430412047919847,0.07559252754874622,0.1410883820648803,0.2550397895292934,0.04421701468249561,0.18895104510846014
144,1456704185492605,0.10639526573660948,0.32981976542018127,0.3615440012398004,0.07596740295604573,0.1422885814991094,0.25162697814818474,0.04481683115429301,0.18527686921927833
145,1456704185492605,0.10486556993024673,0.32197194746385055,0.3580098547154639,0.07623439893519333,0.14370663633590786,0.24838980208915992,0.04568062952326114,0.18212167146985775
146,1456704185507610,0.10336657498258724,0.3147718502808561,0.3536896192157448,0.07638938549425751,0.14531101120667073,0.24537030923308886,0.04677905694913137,0.17952031629534088
147,1456704185507610,0.1019059985374691,0.30826942672664176,0.3485858042717373,0.07643031873084867,0.1470668878963972,0.2426012168569599,0.048080093824562235,0.17749337235647245
148,1456704185515816,0.10049265454821757,0.30250799046002574,0.34271684570099586,0.07635736987895576,0.14893703088708846,0.24010530345018713,0.04954978217797154,0.1760464793293298
149,1456704185515816,0.099136504130369,0.2975249868265651,0.3361177590712082,0.07617292996692615,0.1508826798353029,0.23789549904604573,0.05115298709758827,0.17517027400907123
150,1456704185530884,0.09784866837176141,0.29335255014642003,0.3288400612183837,0.07588149274285745,0.15286445857221262,0.23597561165939615,0.05285417396268104,0.17484087682931262
151,1456704185530884,0.0966414029626111,0.2900178727418086,0.3209509770261662,0.07548943065736106,0.1548432932604807,0.23434157452789878,0.05461818383848349,0.17502091118090113
152,1456704185538649,0.09552802464791617,0.28754342891786855,0.31253198000765736,0.07500468743735267,0.15678133076247863,0.2329830673364076,0.05641098985117827,0.17566100766051332
153,1456704185538649,0.09452276861014317,0.2859470849749316,0.30367675257420373,0.07443641743035073,0.15864284368091783,0.23188535480422626,0.05820041893066069,0.17670173119844768
154,1456704185545608,0.09364055008829555,0.28524211409038036,0.2944887020837305,0.07379460627507384,0.16039510111322516,0.231031193567307,0.0599568253215433,0.17807585574606835
155,1456704185545608,0.09289660740431488,0.2854371392177993,0.2850782160883569,0.07308970804806678,0.16200917475789917,0.230402677183384,0.061653704201479344,0.17971089760788997
156,1456704185561057,0.09230601788155422,0.2865360406578878,0.27555986477767375,0.07233233005268916,0.16346064147044326,0.2299829138963239,0.0632682355009106,0.18153180811224384
157,1456704185561057,0.0918830986786171,0.2885378728637977,0.2660497502599032,0.07153298820426218,0.16473013812502554,0.22975745538823283,0.06478174915288049,0.1834637230970785
158,1456704185567817,0.0916407229946901,0.2914368311602296,0.2566631631400423,0.07070194500339082,0.16580372458792234,0.22971541135101237,0.06618010312701529,0.18543466976574363
159,1456704185567817,0.0915895920050047,0.2952222926177247,0.24751264745639975,0.06984913089889686,0.16667302075281104,0.22985020085761468,0.06745396562684194,0.18737813468036482
160,1456704185576071,0.09173750576812398,0.2998789280750589,0.23870650753666423,0.06898414070050722,0.16733510786348113,0.23015992102256963,0.06859899435416121,0.18923539725886263
161,1456704185576071,0.09208867808706664,0.3053868548530078,0.23034772488170552,0.06811629036965149,0.16779221481988835,0.23064735386650154,0.0696159089069797,0.1909575405953585
162,1456704185591159,0.09264314268370441,0.31172178712434817,0.222533198226701,0.06725471532192297,0.168051230753919,0.2313196620231802,0.07051045524867094,0.19250707887960095
163,1456704185591159,0.0933962983617196,0.3188551463072388,0.21535318144646964,0.06640848811638922,0.16812308878075238,0.2321878275659455,0.07129326145508653,0.19385918347611125
164,1456704185599123,0.09433863706172135,0.3267541040175626,0.20889077516780388,0.06558673081095305,0.1680220594631406,0.23326587066245283,0.0719795813379468,0.19500252171339044
165,1456704185599123,0.09545568991235556,0.3353815338074702,0.20322133160499495,0.0647986971840419,0.16776498740996953,0.23456986159305865,0.07258891932303128,0.1959397210550625
166,1456704185606161,0.09672821146423304,0.3446958539784607,0.1984116624835564,0.0640538048606599,0.167370507345523,0.236116726602568,0.073144527994841,0.19668743965008928
167,1456704185606161,0.09813260222855766,0.35465076796938033,0.19451899759345337,0.0633616064993588,0.1668582855044684,0.23792285578376604,0.07367276892913058,0.19727598782693834
168,1456704185620867,0.09964154794909427,0.3651949439673341,0.19158971369219557,0.0627316986156183,0.16624833968026342,0.24000254951887676,0.07420232966847073,0.19774843650932658
169,1456704185620867,0.10122483401118809,0.37627169189912407,0.18965791707331808,0.06217357299952716,0.16556048835362053,0.2423663763363841,0.07476329988460706,0.1981591861950634
170,1456704185627868,0.10285027727301155,0.3878186749175494,0.18874400330012314,0.061696418945402044,0.1648139651374734,0.245019542697474,0.07538612853813732,0.19857203634099074
171,1456704185627868,0.10448470779699448,0.3997676470753534,0.18885333491214995,0.061308886404669374,0.16402721554366922,0.2479603844698607,0.07610050296276473,0.19905784650115207
172,1456704185635868,0.10609493218966448,0.4120441716505915,0.18997517683128695,0.06101882220186666,0.16321787638525126,0.2511790813080139,0.0769342006700694,0.19969189300064033
173,1456704185635868,0.1076486203185746,0.42456726703465303,0.19208201119564877,0.060832993763297614,0.16240292533406833,0.2546566754174532,0.07791196365776529,0.20055101461151095
174,1456704185650863,0.10911507645389493,0.43724894712322454,0.19512932056795368,0.060756815884998504,0.16159897237807,0.25836445318514667,0.07905443848607828,0.20171063918936818
175,1456704185650863,0.11046587781463799,0.44999366562883547,0.199055886986843,0.06079409437876302,0.16082263958281418,0.26226372833813294,0.0803772183727375,0.20324180200487707
176,1456704185658885,0.1116753799163992,0.4626977414928811,0.20378461432349135,0.06094679653432085,0.16009094467601678,0.2663060492616325,0.08189001784500018,0.2052082885558469
177,1456704185658885,0.1127210954276304,0.475248921810884,0.20922385298065338,0.06121485428118525,0.1594215827067278,0.2704338354027953,0.08359600725543226,0.2076640358203145
178,1456704185665849,0.11358395477431758,0.48752629351015137,0.21526919108416212,0.061596003411499664,0.1588330046238604,0.27458142528212637,0.08549133455329205,0.21065090025457378
179,1456704185665849,0.11424845906809372,0.49940076154606833,0.22180566732289492,0.06208566213088218,0.15834422725174216,0.27867649791766685,0.08756486275842798,0.21419686321688824
180,1456704185681882,0.11470274275765135,0.5107362705048284,0.22871034958922745,0.06267685456269342,0.15797436550189087,0.2826418205096741,0.08979814896092295,0.21831471380493833
181,1456704185681882,0.11493857211413773,0.5213918660447543,0.23585520911597646,0.06336018799945026,0.15774193357552457,0.2863972781075265,0.09216568190587843,0.22300123201825567
182,1456704185689868,0.11495130961619843,0.5312245841208227,0.2431102023369506,0.06412389395218443,0.1576639964448917,0.2898621407894422,0.09463538144223597,0.22823688219494845
183,1456704185689868,0.11473986905195477,0.5400930409791996,0.25034645014652707,0.0649539408173271,0.15775525943915952,0.2929575053083735,0.09716934708128831,0.23398600403439854
184,1456704185695864,0.11430667405298092,0.5478614997149827,0.25743937829446306,0.0658342209014742,0.15802717335588334,0.2956088161084528,0.09972482827324718,0.2401974563894966
185,1456704185695864,0.11365762088308241,0.5544041294169612,0.2642716664116042,0.06674680874015236,0.15848711914614227,0.2977483485207363,0.10225538025558953,0.24680564415648165
186,1456704185710900,0.11280203972321466,0.559609164377833,0.27073586478385575,0.06767228323341407,0.15913772292000763,0.29931753995953436,0.10471216913797281,0.25373185537475956
187,1456704185710900,0.11175264666961623,0.563382709164592,0.2767365808436214,0.06859010364876819,0.1599763356026115,0.30026907491936194,0.10704539545382433,0.26088584949356974
188,1456704185718865,0.11052547678684112,0.5656519896938238,0.2821921901455687,0.06947902821016604,0.16099469412163864,0.30056865212470807,0.10920580938530294,0.26816765248072677
189,1456704185718865,0.10913978378365308,0.5663678936948683,0.2870360646570026,0.07031756367350767,0.16217876971237138,0.30019638306638424,0.11114628743859808,0.2754695205607658
190,1456704185725866,0.10761788538753819,0.5655066885172654,0.2912173334241369,0.07108443575979631,0.16350880703770324,0.29914778802040587,0.11282342919180258,0.2826780338759994
191,1456704185725866,0.10598492931633717,0.5630708771721566,0.29470120931739924,0.07175907299197583,0.16495956048468063,0.29743436179302973,0.1141991176766362,0.2896762809060795
192,1456704185740901,0.10426855638846169,0.5590892420358802,0.29746892757028115,0.07232209779830064,0.166500733494733,0.2950836775175341,0.11524197266068922,0.2963461005169108
193,1456704185740901,0.10249844587656415,0.5536161855612707,0.29951733332612535,0.072755816775372,0.1680976198551634,0.292138994665689,0.11592861518223348,0.3025703626026336
194,1456704185747867,0.10070574271255373,0.5467304908201768,0.30085812943066065,0.07304469746084387,0.16971193462125772,0.2886583480621418,0.11624465573566257,0.3082352828030679
195,1456704185747867,0.09892238414901236,0.5385336114576125,0.3015167760206631,0.07317581398287555,0.17130280974246304,0.28471312308543306,0.11618532382931766,0.31323277097201846
196,1456704185762875,0.09718036086962178,0.5291475766900732,0.3015310413362071,0.07313924034547345,0.17282791669011885,0.2803861669874333,0.11575568224434298,0.31746280200412047
197,1456704185762875,0.09551095922654475,0.518712563679441,0.30094923858370076,0.07292836949250073,0.17424466655945228,0.27576953259703296,0.11497041294235166,0.3208357716509208
198,1456704185771880,0.09394403413098022,0.5073841588690405,0.2998282268422513,0.07254013988329659,0.17551143150259937,0.2709619766058022,0.11385320605403096,0.3232747648534069
199,1456704185771880,0.09250735723215522,0.49533031868634714,0.29823128212813454,0.0719751581831438,0.17658873477135978,0.26606633335557917,0.11243581336548375,0.32471763453498365
200,1456704185778881,0.09122607588123101,0.4827280446341974,0.2962259490208573,0.07123771375879225,0.1774403672775047,0.26118686881264114,0.1107568420196428,0.3251187804633583
201,1456704185778881,0.09012230721331387,0.4697597963076703,0.2938819712358026,0.07033568579250107,0.1780343967106346,0.25642670053964295,0.1088603690325211,0.32445053401489005
202,1456704185785881,0.08921487852735312,0.45660968450639977,0.2912693827898137,0.06928034742250334,0.17834403785484723,0.25188535066493295,0.1067944564515564,0.32270408330358635
203,1456704185785881,0.08851920999868435,0.44345952526156956,0.2884568248458864,0.06808607468528369,0.1783483580738189,0.24765647873543953,0.10460964133154785,0.319889896253755
204,1456704185800882,0.08804732060076226,0.4304848821570199,0.2855101347789111,0.06676997180438138,0.17803280625896864,0.24382582031657896,0.10235746502169932,0.3160376112724223
205,1456704185800882,0.08780792630744032,0.41785125709980997,0.28249122943681015,0.0653514286279908,0.17738957123747423,0.24046934173393128,0.1000890937083715,0.3111953825703159
206,1456704185807882,0.0878065932086157,0.40571060163076955,0.2794572729939336,0.06385162980739945,0.17641778589244458,0.2376516220486566,0.09785406738086386,0.3054287087910186
207,1456704185807882,0.08804590624722579,0.3941983138878113,0.2764600864532352,0.06229303687980719,0.17512359149961854,0.23542449220562472,0.09569919812009343,0.2988188308178253
208,1456704185815883,0.08852561607921274,0.38343085723729037,0.2735457333984645,0.06069886351616104,0.17352006830985575,0.2338259843001752,0.09366762307020969,0.2914608242621573
209,1456704185815883,0.0892427345781016,0.37350408441105465,0.2707542192121039,0.05909256217741858,0.17162703194966974,0.2328796498869938,0.0917980064757318,0.2834615129665527
210,1456704185830919,0.09019156542686738,0.36449228520190546,0.268119270248527,0.05749733766940861,0.1694706928880506,0.23259428218446318,0.09012388176532495,0.2749373015245147
211,1456704185830919,0.09136367489065567,0.3564479071176514,0.26566819778969075,0.05593569887693029,0.16708317302592435,0.2329640297427084,0.0886731280023149,0.2660119880378602
212,1456704185838924,0.09274782131972453,0.3494018360241777,0.2634218749455571,0.054429054735615004,0.16450186912621553,0.23396884467374027,0.08746758122538305,0.2568145867098583
213,1456704185838924,0.09432986836801575,0.3433640852024641,0.26139485100362425,0.052997356093319264,0.16176865613824915,0.23557519440861355,0.08652278694169256,0.24747717499411034
214,1456704185845884,0.09609271094489964,0.3383247429811665,0.25959560329834513,0.051658782937285326,0.15892893902167377,0.23773698736047683,0.08584790353853639,0.2381327890274482
215,1456704185845884,0.0980162486514273,0.3342550630956597,0.25802689708537935,0.05042947633632925,0.15603058073901815,0.2403966963359505,0.08544576672936073,0.2289134106801038
216,1456704185861137,0.10007744754777399,0.3311086245623259,0.25668620196255293,0.04932331500072683,0.15312274574166052,0.24348667885315406,0.08531312270394364,0.21994809292770273
217,1456704185861137,0.1022505320094754,0.32882253311900755,0.2555661062925804,0.04835173657626288,0.1502547010623557,0.2469306805613851,0.08544103308756451,0.21136124730329783
218,1456704185868178,0.10450733957913153,0.32731869213485426,0.2546546828726215,0.047523603698645035,0.1474746153680329,0.25064547958438266,0.08581544760553167,0.20327108491871282
219,1456704185868178,0.10681785304442586,0.32650522671815163,0.25393578673078754,0.04684511449243958,0.1448283931692555,0.25454260727370204,0.0864179307421887,0.19578818292540023
220,1456704185875555,0.10915089934329825,0.326278172282415,0.25338929753207756,0.04631975622424371,0.14235857816924752,0.2585300804313061,0.08722651959738169,0.18901414770512803
221,1456704185875555,0.11147497978341862,0.32652352322789635,0.25299134314353383,0.045948299581666414,0.14010335634841234,0.2625141020452133,0.08821668458803286,0.1830403590987741
222,1456704185890557,0.11375917574389695,0.3271196885055012,0.2527145527947198,0.04572883082625875,0.13809568508777392,0.2664007188900852,0.08936236230052709,0.1779467992773131
223,1456704185890557,0.11597406306873531,0.3279403407058555,0.2525283867769953,0.04565682036124141,0.13636257061955517,0.2700974513413795,0.09063702696883233,0.17380098501511101
224,1456704185898553,0.11809256998062645,0.3288575944521294,0.2523995763049851,0.04572522807669603,0.13492451406394607,0.2735149246480748,0.09201475991661376,0.17065702296440358
225,1456704185898553,0.12009072621528726,0.3297454164882514,0.25229268878996713,0.0459246469366344,0.1337951445583767,0.2765685247887107,0.09347126548284729,0.1685547979053803
226,1456704185912314,0.1219482672365398,0.33048314677436785,0.25217081679942605,0.04624348611982916,0.1329810526263849,0.2791800769719763,0.09498477350724,0.1675192998760489
227,1456704185912314,0.12364906755300835,0.33095898537138674,0.2519963728887116,0.046668193668503735,0.13248182687797988,0.28127951611711344,0.09653676802960263,0.16756010470781912
228,1456704185920511,0.12518137940866228,0.3310732714692074,0.2517319557383604,0.04718351657317354,0.132290285805303,0.2828065031856298,0.09811248896876593,0.1686710346882469
229,1456704185920511,0.12653785508756996,0.33074135913874364,0.25134124159605764,0.047772794686802025,0.1323928881992036,0.2837119411771098,0.09970116523713034,0.17083003255283055
230,1456704185935511,0.12771534316679647,0.3298958967469923,0.25078985603476617,0.04841828492018847,0.13277030102787993,0.28395935079017876,0.10129595516717711,0.17399928431696313
231,1456704185935511,0.12871447406289416,0.3284883587147049,0.25004619083231683,0.04910151354641516,0.1333981000428232,0.2835260713992795,0.10289359525989823,0.17812562839455368
232,1456704185936315,0.12953907869096448,0.32648976277309955,0.24908213840452936,0.049803655468159826,0.13424757660479125,0.28240425467071895,0.10449378686790264,0.18314128765873555
233,1456704185936315,0.13019550283539022,0.32389061545715303,0.2478737179742024,0.05050593859092065,0.13528662818415305,0.28060161044342957,0.10609837474414865,0.18896495438579022
234,1456704185950561,0.1306918850763509,0.3207002274427305,0.24640157123703132,0.05119006905862173,0.13648071943759343,0.2781418491834409,0.10771038734542417,0.19550324664031407
235,1456704185950561,0.1310374634481386,0.31694559668340233,0.24465131887656869,0.0518386702329966,0.13779390895712618,0.275064761784741,0.109333016247962,0.2026525400883779
236,1456704185958728,0.13124197061671936,0.312670063913504,0.24261379233479052,0.05243572597458845,0.13918993705087365,0.27142590546260176,0.11096861210064146,0.21030116104516455
237,1456704185958728,0.1313151706261205,0.30793191586785496,0.24028518115191097,0.05296701653993723,0.14063336097756576,0.26729591542667314,0.11261776992626128,0.21833190686998047
238,1456704185973220,0.1312665821121078,0.30280306335671225,0.23766715594787155,0.05342053193314821,0.1420907093622964,0.2627595037671707,0.11427857078628365,0.22662484265998464
239,1456704185973220,0.1311054216412122,0.2973678626302284,0.23476702951969788,0.053786843238372024,0.14353161226883643,0.257914217088425,0.1159460403673094,0.2350603092731829
240,1456704185980221,0.13084078466709034,0.29172208387576354,0.23159799735441072,0.054059409791789956,0.1449298519900351,0.2528690056031091,0.11761187482615222,0.24352206472263374
241,1456704185980221,0.13048206177073163,0.28597197175791705,0.22817946123393099,0.05423480111833142,0.14626427458705668,0.24774262282826426,0.119264467150806,0.2519004665614203
242,1456704185995426,0.13003956647402656,0.28023330622181586,0.22453739877441545,0.05431281758020252,0.1475195049386439,0.24266183877676584,0.12088924323023964,0.26009558493017493
243,1456704185995426,0.12952532762542376,0.2746303622910502,0.22070470442608767,0.05429650124042946,0.14868641875327096,0.23775942150731272,0.12246928939214312,0.2680201147268771
244,1456704185997222,0.12895397377206938,0.2692946717437932,0.2167213984167772,0.05419203620914603,0.1497623410665957,0.23317183491804733,0.12398622912545912,0.2756019348188176
245,1456704185997222,0.1283436118841851,0.2643634926890865,0.21263459238495058,0.054008544389543084,0.1507509575539157,0.22903662248898743,0.12542129222629825,0.28278614491119997
246,1456704186010263,0.1277165845047614,0.25997789734321936,0.20849812564202078,0.0537577886885324,0.15166193990605115,0.2254894887370753,0.12675651408213648,0.2895363981153414
247,1456704186010263,0.12709998630292382,0.25628040486996945,0.2043718384741323,0.053453801264135736,0.15251030014336175,0.22266113143582114,0.12797599771665483,0.2958353523046119
248,1456704186018228,0.1265258393101711,0.2534121194820739,0.2003205096346063,0.05311245659075156,0.15331550139902342,0.22067390378524987,0.1290671582043686,0.3016841085411978
249,1456704186018228,0.12603086290809834,0.25150938517153887,0.1964125349217009,0.0527510061887017,0.15410036199676636,0.21963839790471867,0.13002184858038743,0.30710059320210015
250,1456704186032228,0.1256558184496811,0.25070003776929384,0.19271844925736467,0.05238758602192415,0.15488979208562373,0.21965004670064356,0.13083724832182528,0.31211694229496517
251,1456704186032228,0.12544444887561315,0.2510994072926661,0.18930939234244923,0.05204070338253182,0.15570939899336364,0.22078584548826233,0.13151639507298027,0.3167760315183909
252,1456704186048224,0.125442066879001,0.2528062703750412,0.18625559396494,0.051728710560666046,0.15658399992408423,0.22310129997234904,0.13206827034029522,0.32112736136322567
253,1456704186048224,0.12569386977481067,0.25589896294526865,0.18362492004903613,0.05146927700204111,0.15753609982454175,0.22662771198013273,0.13250740784110587,0.3252225613596746
254,1456704186055731,0.1262430742836275,0.2604318521427935,0.18148148549478063,0.05127887614321892,0.15858442084625352,0.231369915563298,0.13285305689798066,0.32911081541970644
255,1456704186055731,0.12712897051910743,0.2664323468030295,0.17988431587805528,0.05117230442846967,0.1597425854428905,0.23730457308844347,0.133127978380849,0.3328345169472163
256,1456704186056732,0.1283849921904167,0.273898593842421,0.17888603705898257,0.05116224868731208,0.16101804645314852,0.24437913365888372,0.13335697096753296,0.336425434100449
257,1456704186056732,0.1300368889994252,0.28279796124224943,0.17853159028369303,0.05125891654565435,0.16241133447718706,0.25251154281553506,0.1335652310819692,0.3399016130121548
258,1456704186070283,0.1321010699329511,0.2930663612490487,0.1788569955563489,0.051469743231225856,0.1639156696687463,0.26159077360391836,0.13377665151956886,0.34326518985980214
259,1456704186070283,0.1345831699816404,0.3046084348296371,0.17988819923510183,0.05179918555121353,0.1655169655264436,0.27147822918581094,0.1340121644496429,0.34650123854160086
260,1456704186078288,0.13747688454183188,0.31729859573287894,0.18164003942283188,0.052248609751073455,0.16719423261484226,0.2820100474298066,0.13428823108253093,0.34957774715446044
261,1456704186078288,0.14076311591263227,0.330982905184201,0.18411535583117228,0.052816275634501246,0.16892036681262138,0.29300031116997505,0.13461556818258932,0.3524467737643986
262,1456704186092248,0.1444094792625099,0.3454817159196283,0.18730426896868546,0.05349741510242553,0.17066327925963432,0.3042451249541041,0.13499818015754653,0.3550467660096337
263,1456704186092248,0.14837021361412772,0.36059299919043947,0.19118365737420867,0.05428439841094471,0.17238729590908097,0.31552746241874835,0.1354327403679674,0.3573059429529718
264,1456704186100249,0.1525865334417668,0.3760962556717227,0.19571686915597697,0.05516697598315759,0.17405472666711874,0.32662263331897357,0.13590834362240484,0.3591465405702446
265,1456704186100249,0.1569874410608175,0.391756908934046,0.20085371621386014,0.05613257880642577,0.17562748165165398,0.3373041776439676,0.13640663501134587,0.36048962111352023
266,1456704186115251,0.1614910011620864,0.4073310922409714,0.20653081431962822,0.057166657791258284,0.1770686034123228,0.34734996601013424,0.13690230349735488,0.3612600546721139
267,1456704186115251,0.16600605475909996,0.422570769685308,0.21267233791532308,0.05825304348750142,0.1783436007192854,0.3565482755698025,0.13736390690352246,0.3613912309633979
268,1456704186116250,0.1704343214613066,0.4372291693396594,0.21919124160701728,0.05937431323971842,0.17942151503359366,0.36470363537468925,0.1377549694398965,0.3608290889430634
269,1456704186116250,0.17467281468749893,0.45106652583576,0.2259909604829103,0.060512161582665515,0.18027570836425894,0.37164229053999176,0.1380352739371364,0.35953516830198223
270,1456704186130251,0.17861648466064023,0.4638561154352923,0.2329675509431805,0.06164777736198996,0.18088440462407185,0.37721718145452754,0.13816227192063107,0.3574885522773228
271,1456704186130251,0.18216101266332355,0.4753905168671681,0.24001218739226482,0.06276223479314792,0.18123103448135164,0.38131234072029485,0.13809255751540195,0.35468672972482335
272,1456704186138291,0.18520569941737727,0.48548795573803305,0.24701390162053335,0.06383690566392895,0.18130443425410087,0.3838465878138856,0.13778337875004387,0.3511455142734729
273,1456704186138291,0.1876564050860277,0.4939985041725085,0.2538624519124892,0.06485389804651026,0.18109894316444639,0.3847763793600579,0.13719417093210767,0.34689820396680454
274,1456704186152252,0.1894284961317145,0.5008098343552444,0.26045123452882285,0.06579652488825322,0.18061443559469242,0.3840976649969034,0.13628808620556884,0.3419941566409879
275,1456704186152252,0.19044973480322472,0.5058521932729344,0.26668017873136535,0.0666498041101357,0.17985632097904583,0.38184661320110735,0.13503347178208916,0.3364969223950966
276,1456704186160757,0.19066302121466625,0.5091022873542272,0.27245857637944026,0.06740098910695687,0.17883554643732633,0.3780991263446361,0.13340523243412938,0.33048204418329435
277,1456704186160757,0.1900288812260792,0.5105858242753,0.27770778993035306,0.06804012287464296,0.1775686411060422,0.3729691608871727,0.13138601469755262,0.3240346263760494
278,1456704186175263,0.18852759675937375,0.5103785302522736,0.28236377467324425,0.06856060013540866,0.17607783729418874,0.36660596925268985,0.12896717346303666,0.31724677787824573
279,1456704186175263,0.18616089810053313,0.5086055294671272,0.28637934809682164,0.06895971266730688,0.17439128780739221,0.35919044227032954,0.12614951149463038,0.31021505180031794
280,1456704186176263,0.18295316894683084,0.5054390347562997,0.28972613290434546,0.06923914740725635,0.17254337459847163,0.35093074796957013,0.1229438009051139,0.3030380151557497
281,1456704186176263,0.17895214129889284,0.5010943588114667,0.29239608611132806,0.06940540564433077,0.17057507898016652,0.34205745207752053,0.11937109991559644,0.29581407412252486
282,1456704186190304,0.17422906971940136,0.49582431685528394,0.2944025158272878,0.06947011255552983,0.16853436488237625,0.33281828360759325,0.11546287709314093,0.28863964615736426
283,1456704186190304,0.16887837177642812,0.4899121567822896,0.2957804930885726,0.0694501879265064,0.16647651656581447,0.32347268418708114,0.11126095309389639,0.28160772210591584
284,1456704186198270,0.16301671485488356,0.48366322427166863,0.2965865903831021,0.06936785161431647,0.16446436597098482,0.3142862576606151,0.10681726404891474,0.27480682072334256
285,1456704186198270,0.15678153774370898,0.47739565311925203,0.2968979170432893,0.0692504418446496,0.16256833443063,0.3055252181902826,0.1021934415804696,0.2683203157210695
286,1456704186212266,0.15032902505799972,0.47143045719924515,0.2968104683885255,0.06913003098557437,0.16086620012981884,0.29745092070366363,0.09746020000524062,0.262226106940636
287,1456704186212266,0.14383158597666304,0.46608146135731665,0.2964368446775477,0.06904283181530346,0.15944250034248236,0.29031454973551396,0.09269652817533393,0.25659660203263773
288,1456704186220266,0.13747490309235225,0.4616455152879815,0.2959034092838056,0.06902839614621134,0.15838749636512714,0.2843520429535553,0.0879886970949776,0.2514989671929663
289,1456704186220266,0.13145461133137998,0.45839338335326024,0.2953469437052987,0.06912861466087981,0.15779566206899823,0.27977933164611724,0.08342910336364905,0.24699559427193182
290,1456704186235266,0.12597265789495854,0.4565616125696921,0.29491084236696563,0.0693865315580887,0.1577636899541494,0.2767879873425633,0.07911496778125193,0.24314471824243908
291,1456704186235266,0.12123339304683245,0.4563455760265229,0.29474089604701614,0.06984499381394543,0.15838803847889896,0.2755413647923864,0.07514690435134229,0.24000110925085477
292,1456704186236267,0.11743944651900486,0.45789379871163105,0.2949807422405947,0.07054516686688829,0.1597620766180989,0.2761713205102582,0.07162737455374849,0.2376167665619051
293,1456704186236267,0.11478745141857569,0.4613036202550127,0.29576709383260724,0.07152496519889973,0.16197291518608242,0.2787755625604379,0.06865904451262185,0.23604156056438072
294,1456704186250267,0.11346368526897076,0.4666182326507066,0.29722487363740546,0.0728174613346415,0.16509804252851604,0.2834156584296951,0.06634306381590102,0.23532379408917703
295,1456704186250267,0.1136397030416568,0.47382512395806275,0.29946238574540224,0.07444934522262275,0.1692019012802666,0.2901157047166313,0.06477728227818488,0.23551067149578678
296,1456704186258777,0.11546803649855869,0.4828559341752039,0.3025666664868395,0.07643950732672296,0.17433255287878743,0.29886165279809823,0.06405441715103355,0.23664866587278918
297,1456704186258777,0.11907803089809335,0.49358767971845985,0.3065991865491922,0.07879781469567622,0.1805185777062091,0.3096012879051778,0.06426018268514427,0.23878376261020418
298,1456704186272297,0.12457189162210967,0.5058452442205104,0.3115921075229036,0.08152414129852577,0.18776635504053485,0.3222448695380291,0.06547139970067581,0.2419615374869036
299,1456704186272297,0.13202102224471762,0.5194049979812316,0.3175453138579637,0.08460770331311619,0.19605786438977638,0.3366664556802432,0.06775411328508464,0.2462270083309063
300,1456704186280292,0.1414627471365005,0.5339994263119745,0.3244244368669639,0.08802673770349516,0.20534914724637324,0.352705945833465,0.07116175723346044,0.2516241922975458
301,1456704186280292,0.15289752056350786,0.5493227126391923,0.33216005644380375,0.09174854878542708,0.21556955700164718,0.3701718745744886,0.07573341189213784,0.25819531074936347
302,1456704186295293,0.16628672922280335,0.5650372824174473,0.34064820651134853,0.09572993361000193,0.22662189854202563,0.3888449628108694,0.0814922083162422,0.26597960444239754
303,1456704186295293,0.18155119683797322,0.5807813143968993,0.34975222954472274,0.09991798407640956,0.2383835206410589,0.40848240287425364,0.08844393657801845,0.2750117485118071
304,1456704186296294,0.1985704991711276,0.5961771670668594,0.35930593980021547,0.10425125127373223,0.2507083807853518,0.4288228294474211,0.09657591854501317,0.28531989914026273
305,1456704186296294,0.21718319773994754,0.6108405935689714,0.3691179779504393,0.10866124408185392,0.26343005900317784,0.44959190200947663,0.10585620447989282,0.2969234722138537
306,1456704186310294,0.23718809821886738,0.6243905602390728,0.3789771793272828,0.11307421911515483,0.27636565617807196,0.47050837721321936,0.11623314857148571,0.30983083450803983
307,1456704186310294,0.2583466251328722,0.6364594420031563,0.38865873998244116,0.11741320376786345,0.28932047085156665,0.49129047916128094,0.12763541121185332,0.3240371435176115
308,1456704186325300,0.2803863692140962,0.6467033313309396,0.3979309525707587,0.12160018006086327,0.30209330410073115,0.5116623044972549,0.13997242497711368,0.33952257743965936
309,1456704186325300,0.3030058089145847,0.6548121659580227,0.4065622875461193,0.12555834646675657,0.31448219822503837,0.5313599604216638,0.15313534660513067,0.356251157539453
310,1456704186332300,0.32588014385292113,0.660519353715642,0.41432859291219243,0.12921436976535292,0.326290378813577,0.5501371474265773,0.1669985002081075,0.3741703016375756
311,1456704186332300,0.3486681206475046,0.6636105360578786,0.42102017058615804,0.1325005379086915,0.33733214157616365,0.5677699618199225,0.1814213009558394,0.39321117259839605
312,1456704186340296,0.3710196924847564,0.6639310850741981,0.42644848052139867,0.13535672508341706,0.34743840281866456,0.5840607901853883,0.1962506363092771,0.4132898013167005
313,1456704186340296,0.39258433211671956,0.6613919157731042,0.43045224546126903,0.13773208372721074,0.3564616291193,0.598841280485048,0.21132367090506715,0.43430886836878235
314,1456704186355821,0.41301980193791565,0.6559732620724136,0.43290276616530193,0.1395863909773812,0.36427989989827314,0.6119744750551442,0.22647102424309554,0.4561599277825242
315,1456704186355821,0.432001162732481,0.6477262001451314,0.4337082829227288,0.14089099950427508,0.37079993392532584,0.6233562440666167,0.24152024528214397,0.4787257741483354
316,1456704186356821,0.44922976894268835,0.6367718579159497,0.43281723702611197,0.14162936939898949,0.3759589968176439,0.6329161475591613,0.2562994825388634,0.5018826287806798
317,1456704186356821,0.46444195330243193,0.6232983906260919,0.430220317585521,0.14179718499912097,0.3797256766389147,0.6406177949056602,0.27064122976775334,0.5255018710739827
318,1456704186370378,0.47741705268334994,0.6075559169625204,0.4259512238018347,0.1414020869997588,0.38209956708547194,0.6464586862080088,0.2843860121008619,0.5494511371625473
319,1456704186370378,0.48798437590737576,0.5898496948492098,0.4200861090384911,0.14046307077579215,0.38310993642003893,0.6504694257017646,0.2973858566644757,0.5735946941698098
320,1456704186378343,0.4960286721144291,0.5705318717707898,0.4127416966600878,0.1390096090239246,0.38281348247010716,0.6527121186104825,0.3095073668103556,0.5977930553522838
321,1456704186378343,0.5014936498972717,0.5499921656655198,0.4040720857434676,0.13708055005871972,0.3812912804826602,0.6532777503574082,0.3206342066593294,0.6219018623329766
322,1456704186392344,0.5043831641433525,0.5286478063168826,0.3942643037073791,0.13472283068575694,0.3786450337250077,0.6522824340843036,0.33066881994398967,0.6457701606876782
323,1456704186392344,0.5047598586142688,0.5069329992613504,0.3835327048938913,0.13199003355902686,0.37499274987957604,0.6498625711104308,0.33953325848098825,0.6692383195530596
324,1456704186400339,0.502741305181691,0.4852881024639008,0.3721123651256853,0.12894081780737102,0.3704639958073158,0.6461691383130773,0.3471690747092803,0.6921359377320394
325,1456704186400339,0.49849393525435937,0.4641486750124277,0.36025169486667663,0.12563725905361495,0.36519492652033486,0.6413614529012702,0.353536328154653,0.7142800985828209
326,1456704186415345,0.49222523128028656,0.4439345756422539,0.34820457042294434,0.12214314654230954,0.3593233226163218,0.6356008400828919,0.3586118477302692,0.7354743002723653
327,1456704186415345,0.4841747122913281,0.42503932721609694,0.3362223274320614,0.118522293306508,0.3529838783714926,0.6290446212886007,0.3623869602060773,0.7555083391617606
328,1456704186416340,0.47460424275753277,0.40781999440129957,0.32454596562290694,0.11483691634478313,0.3463039563486713,0.621840764739708,0.3648649363563251,0.7741593792310636
329,1456704186416340,0.4637881597886287,0.39258784231959665,0.313398897105876,0.11114614025210612,0.33939998454228637,0.6141234515131154,0.36605842606068006,0.7911943873868424
330,1456704186430341,0.45200366488633126,0.3796000554426725,0.30298054002950314,0.1075046725411133,0.33237463432666586,0.60600975196019,0.3659871479074364,0.8063740436109634
331,1456704186430341,0.43952186453098047,0.3690527949865684,0.2934610094071997,0.10396169153458874,0.3253148781460048,0.5975975666268308,0.36467606183615037,0.819458148867958
332,1456704186438346,0.42659977571857555,0.3610758582195379,0.2849770896464892,0.10055997741114613,0.3182909778203324,0.5889649211267012,0.36215419569707025,0.8302124495400681
333,1456704186438346,0.4134735457618227,0.3557291742601212,0.27762959945182375,0.09733530480297149,0.3113563993951713,0.5801706045729239,0.35845423641146706,0.8384166623508772
334,1456704186452347,0.40035306729397385,0.3530013255489728,0.2714821851351902,0.0943161026501349,0.30454859323068073,0.5712560319343128,0.353612937082548,0.8438733192657752
335,1456704186452347,0.3874180935467717,0.3528102212022896,0.26656150494130043,0.09152337428973734,0.29789052020350903,0.5622481142498715,0.34767232008186544,0.8464168924489927
336,1456704186461092,0.3748158809892755,0.35500597114622695,0.26285870065793,0.08897085821075179,0.29139275192255304,0.5531628421837721,0.3406815637441918,0.8459225619697847
337,1456704186461092,0.3626603185393922,0.3593759259992841,0.2603320004252646,0.08666539826695616,0.28505593548114644,0.5440092323921897,0.3326993572539799,0.8423139958754833
338,1456704186475552,0.35103244752651264,0.3656517679664023,0.258910258907563,0.08460748285336761,0.2788733970261232,0.5347932567225377,0.32379642181362933,0.8355696214500201
339,1456704186475552,0.3399822241901277,0.37351846954166046,0.25849721484761307,0.08279190726890268,0.27283366204697995,0.5255213724138604,0.31405785511562223,0.8257270312044956
340,1456704186476552,0.3295313189458947,0.3826248756153956,0.25897623248962126,0.08120851294825425,0.2669226960346,0.5162033108303142,0.30358497327246214,0.8128853221104649
341,1456704186476552,0.31967669146473576,0.39259559811790684,0.2602152977262749,0.07984296113428709,0.26112572255564387,0.5068538840325078,0.29249638957510243,0.7972052680055967
342,1456704186490771,0.31039464473458267,0.40304383008813016,0.2620720662299955,0.07867750701303441,0.25542855212111965,0.49749372452976715,0.2809281612653092,0.7789072825399159
343,1456704186490771,0.3016450607102575,0.4135845912114696,0.2643988063166466,0.0776917532953201,0.24981843263391107,0.48814903592785,0.2690329349154171,0.7582671966154033
344,1456704186497765,0.29337556524697594,0.42384783392962605,0.26704712964753824,0.07686337588777645,0.24428448461766727,0.47885054971182345,0.2569781125966231,0.7356099883114754
345,1456704186497765,0.2855254531042222,0.4334908062576315,0.2698724367841756,0.07616882226102169,0.238817805498865,0.46963193775098677,0.24494313150351946,0.7113017409070718
346,1456704186512555,0.2780292916549982,0.4422091080673201,0.2727380074778031,0.07558398352184068,0.23341133372933276,0.46052793639907663,0.23311599508656716,0.6857402095527158
347,1456704186512555,0.2708201811263279,0.4497459834475648,0.27551864152522293,0.07508483829388388,0.22805956924468224,0.45157242069358844,0.22168922391809112,0.6593444280033198
348,1456704186520843,0.263832676432585,0.4558995367136295,0.2781037269218457,0.07464806426637263,0.22275824675211478,0.44279664025954485,0.21085542038405883,0.6325438054421386
349,1456704186520843,0.2570053876186945,0.4605277115138529,0.2803996042047127,0.07425161177643391,0.2175040451097326,0.43422779299855163,0.2008026578831286,0.6057671693678686
350,1456704186535857,0.25028328268895594,0.4635509938238604,0.2823311241785221,0.07387523184870695,0.21229439271447667,0.4258880641169037,0.19170989908956756,0.579432199233053
351,1456704186535857,0.24361971776513452,0.46495287379749,0.2838423541331002,0.07350094824230978,0.20712740076261923,0.4177942000009131,0.18374261894243074,0.5539356511403613
352,1456704186543860,0.23697821125797816,0.46477815497633196,0.28489645021560167,0.07311345949792464,0.20200192593872848,0.40995763199110785,0.17704877037457037,0.5296446846060787
353,1456704186543860,0.2303339583266627,0.46312926771799207,0.2854747586631376,0.07270045445947369,0.19691773890381375,0.4023851195909862,0.17175519526658298,0.5068894773308564
354,1456704186550559,0.22367505278165484,0.4601608233113423,0.2855752381450884,0.07225282635003279,0.19187576687726549,0.3950798360010167,0.16796455179054154,0.48595719127493264
355,1456704186550559,0.21700335477150487,0.4560727008366601,0.2852103257445885,0.07176477770697538,0.1868783893716706,0.38804276327976794,0.16575280273715465,0.46708727417080115
356,1456704186557569,0.2103349250974324,0.4511019706168149,0.28440440212085605,0.07123381861085905,0.181929780585179,0.38127421089893426,0.1651672897017932,0.45046804977642674
357,1456704186557569,0.2036999510376189,0.4455139438242177,0.2831910316782276,0.07066066826705514,0.1770362917479842,0.37477524308321236,0.16622540548037323,0.43623453673201684
358,1456704186572882,0.19714211276501697,0.43959262536724225,0.28161014948096147,0.0700490713080243,0.1722068471880252,0.36854881030643094,0.16891386914775253,0.42446741696313733
359,1456704186572882,0.1907173681529218,0.4336308416612722,0.27970534114028617,0.06940553601656557,0.16745330158408073,0.3626004214285456,0.17318860266514022,0.4151930624747577
360,1456704186580865,0.18449215965318122,0.4279203074031937,0.2775213259165056,0.06873899697985869,0.16279069317847233,0.35693825242025523,0.17897520383399165,0.4083845448643173
361,1456704186580865,0.1785410817700021,0.4227418895857445,0.27510171735034245,0.0680604042729524,0.15823733879469865,0.35157266162663686,0.18617000780816192,0.40396358780881225
362,1456704186595865,0.172944096608096,0.4183563319082653,0.2724871063851521,0.06738224568109898,0.15381473977352927,0.3465151659460071,0.19464172851930828,0.40180344902174225
363,1456704186595865,0.16778343084371597,0.4149957095830838,0.2697134925883758,0.06671801478169752,0.1495472844427033,0.34177700939171096,0.2042336729745127,0.4017327158023972
364,1456704186603865,0.16314031126768977,0.4128558731771658,0.26681108264522735,0.06608164286184808,0.14546173976102342,0.33736750046063907,0.2147665229148737,0.403539977687158
365,1456704186603865,0.15909169478493507,0.41209010747771035,0.2638034816400234,0.06548691480536721,0.14158653379158198,0.3332922962701691,0.2260416731204958,0.40697932220534544
366,1456704186619208,0.15570712954384658,0.4128041963048603,0.26070731187764934,0.06494688822354022,0.13795084741519453,0.32955178426999865,0.2378450991338609,0.41177659201834377
367,1456704186619208,0.15304585597580406,0.4150530608208332,0.2575322912639722,0.0644733334904949,0.13458355299977973,0.326139685030285,0.2499517021585373,0.41763633395714417
368,1456704186619867,0.15115423037744144,0.4188391159976026,0.25428178541725693,0.06407621248576105,0.13151205391304188,0.3230419887910285,0.2621300548040453,0.4242493469903317
369,1456704186619867,0.15006353781489581,0.42411244437370804,0.2509538246320412,0.06376321570298428,0.12876109136135008,0.32023633807742363,0.2741474582452092,0.43130068422707335
370,1456704186633210,0.1497882559649425,0.4307728093645182,0.247542553138587,0.06353937862934764,0.12635159400675408,0.3176919603656498,0.2857752197585169,0.4384778864595591
371,1456704186633210,0.15032482799776087,0.4386734341696027,0.24404004808949803,0.06340679705721695,0.1242996476780123,0.31537022322831776,0.29679405734861164,0.4454791478273734
372,1456704186640874,0.15165099186459943,0.44762637544167955,0.2404384091101263,0.0633644574182932,0.12261565522490132,0.31322582640895913,0.3069995233035509,0.4520210711091327
373,1456704186640874,0.1537256974645658,0.45740923501497543,0.2367319869980268,0.06340819342073643,0.12130374398372892,0.31120857005770197,0.3162073115007478,0.4578456691134204
374,1456704186656176,0.15648963031691832,0.4677728800688098,0.23291960092868866,0.06353077465079937,0.12036146512638755,0.30926556171414754,0.3242582817776163,0.46272629253601394
375,1456704186656176,0.1598663505896456,0.4784497806011056,0.22900658578098868,0.06372212632195846,0.11977981465115081,0.30734366431405796,0.3310230033515229,0.46647221299823044
376,1456704186663678,0.16376404075845624,0.48916253028454937,0.22500651287111442,0.06396967238198425,0.11954358560898994,0.3053919617764961,0.33640559394016856,0.4689316916581573
377,1456704186663678,0.16807782796178994,0.4996321178311922,0.22094244382639303,0.06425878737193493,0.11963203320376856,0.30336403995287015,0.3403466260643001,0.46999351887704865
378,1456704186679007,0.17269261005658024,0.5095855842964867,0.21684761255177706,0.06457333597899403,0.12001980108393942,0.30121994054474105,0.342824897444618,0.469587153256835
379,1456704186679007,0.17748627219548047,0.5187628178091935,0.2127654782318133,0.06489627299276624,0.12067802489197392,0.2989277111045883,0.34385791143743466,0.46768165257595434
380,1456704186680008,0.18233314089328256,0.5269223461790742,0.20874914246953927,0.06521027111949376,0.12157550845973845,0.2964645153019267,0.3435009768344111,0.4642835835223259
381,1456704186680008,0.18710749863860748,0.5338460665187049,0.20486016670817386,0.06549834212848935,0.12267987051556431,0.2938172880498546,0.3418449185208156,0.4594340783768304
382,1456704186693230,0.19168698625047384,0.539342927307169,0.2011668549444948,0.06574442000418082,0.12395858803715713,0.2909829447164998,0.33901249079558693,0.4532052050966736
383,1456704186693230,0.1959557480027346,0.5432516684257022,0.1977420826144056,0.06593388216991194,0.12537990316692893,0.2879681884141904,0.3351536799477951,0.44569582418368375
384,1456704186701231,0.19980720916787306,0.5454427982129108,0.19466076644218683,0.06605399309915151,0.12691359292178153,0.284788985012191,0.3304401440448728,0.4370271120907842
385,1456704186701231,0.20314640966637418,0.5458200065606276,0.19199708887813113,0.06609426070862409,0.12853161166752572,0.2814697798298795,0.3250590610986446,0.42733793854415686
386,1456704186716009,0.2058918553566161,0.5443211746529406,0.18982160793883285,0.06604669879821908,0.13020860614220375,0.2780425226693192,0.31920666053757246,0.4167802865385881
387,1456704186716009,0.2079768854662414,0.5409190713058807,0.188198389351707,0.06590598967095607,0.1319222811629335,0.2745455589633195,0.3130817143682801,0.40551488086676146
388,1456704186724233,0.20935057439258606,0.5356217628397819,0.1871822923442036,0.06566954268579832,0.13365357424717472,0.2710224302114095,0.3068792611022569,0.3937071424548822
389,1456704186724233,0.20997818348925026,0.5284727336029553,0.1868165280592588,0.06533744909658558,0.13538659250848203,0.26752060206497763,0.3007848157802081,0.38152353459633825
390,1456704186739011,0.20984116921227322,0.5195507047753913,0.18713059117091932,0.06491234038306679,0.13710828154615207,0.26409011098978286,0.29496928094307767,0.3691283344683009
391,1456704186739011,0.20893675676699563,0.5089691132737293,0.1881386379050424,0.06439916311537411,0.1388078287340507,0.2607821062955865,0.28958472566152826,0.35668084854907395
392,1456704186740213,0.20727710692581058,0.4968751527025666,0.18983835121855203,0.06380488617787072,0.14047584294971463,0.2576472769029084,0.284761153462902,0.34433307989421585
393,1456704186740213,0.20488812951546623,0.48344820605378536,0.19221030944580272,0.06313815721371213,0.14210339136543682,0.2547341894124097,0.2806043365198752,0.3322278364198846
394,1456704186753012,0.20180802044192372,0.46889745753595935,0.19521786513083267,0.062408926329368765,0.14368100169966466,0.25208760601236907,0.2771947460482229,0.32049723895290816
395,1456704186753012,0.19808561118360019,0.45345849077335093,0.19880753505257,0.061628055814323464,0.14519774606449048,0.24974687733361708,0.2745875555564034,0.3092615534207126
396,1456704186761022,0.19377861449212638,0.43738876934714216,0.20290988645905922,0.0608069333270199,0.14664051176777393,0.24774451195821642,0.2728136433938338,0.29862824911220914
397,1456704186761022,0.1889518339072334,0.42096203117028896,0.20744088178449055,0.059957103417040976,0.14799354541262738,0.24610501746368696,0.2718814845504595,0.2886911901529653
398,1456704186776317,0.18367539376926456,0.40446176601091793,0.21230362998134808,0.059089930493344156,0.14923833454715982,0.24484409282177239,0.2717797979614451,0.2795299019322018
399,1456704186776317,0.17802304681580444,0.3881740464431346,0.21739049309720235,0.058216305401673725,0.1503538629953175,0.24396822930725043,0.2724807907941216,0.27120889841077717
400,1456704186783547,0.17207061581924463,0.3723800389974673,0.2225855059639188,0.05734640582350826,0.1513172405311952,0.2434747472893371,0.27394380380678135,0.26377708620539786
401,1456704186783547,0.16589460932760086,0.3573485448813764,0.22776707920345313,0.056489517326332256,0.15210467053398105,0.24335226126967396,0.2761191176654849,0.2572672753590583
402,1456704186798380,0.159571019275175,0.34332891185634284,0.23281096741796917,0.055653918553666505,0.15269268934561328,0.24358152722637,0.27895164664290734,0.2516958398430352
403,1456704186798380,0.15317427516340812,0.33054462457580186,0.2375934874896354,0.054846831758386165,0.15305959304307298,0.2441365898451264,0.28238424010501767,0.24706258814802595
404,1456704186799318,0.1467763158459915,0.3191878346747802,0.2419949579481032,0.054074437803997594,0.15318695978013158,0.2449861239505369,0.2863603476659364,0.24335091444818496
405,1456704186799318,0.14044575431131656,0.3094150419389475,0.24590329938994696,0.053341951227924636,0.15306117373752035,0.24609486365718286,0.29082588483390315,0.2405282917829574
406,1456704186812319,0.13424713830029586,0.3013440755742635,0.24921769623127665,0.05265374552651412,0.15267485442170403,0.24742502987401957,0.29573024130928666,0.23854714133762867
407,1456704186812319,0.12824032538751381,0.2950524451540052,0.25185218067019194,0.05201351295504638,0.15202808930331455,0.24893768708680955,0.3010264683417135,0.23734607928807305
408,1456704186820538,0.12247998831542084,0.2905770458543209,0.2537389652629457,0.05142443899107056,0.1511293619945077,0.25059397422869356,0.30667074645960224,0.23685151707525343
409,1456704186820538,0.11701525710843486,0.2879151290822542,0.25483132144868104,0.05088937038250837,0.14999607149750455,0.2523561638542229,0.31262127621726377,0.2369795726830039
410,1456704186835326,0.11188949741980685,0.2870263959560052,0.2551057821056929,0.05041095740804645,0.14865455832059574,0.25418851400724757,0.31883676072108325,0.23763823375909693
411,1456704186835326,0.10714021706824362,0.28783603555527304,0.25456345513176365,0.049991755089044757,0.14713959085353281,0.25605788656933387,0.3252746598020715,0.238729699355285
412,1456704186844321,0.1027990832089768,0.29023850751909586,0.2532302939453937,0.04963427351863948,0.14549331168224985,0.25793410771970626,0.3318893923840126,0.24015282186702416
413,1456704186844321,0.09889202492490265,0.2941018576215906,0.25115627622618875,0.0493409728801005,0.14376368812111634,0.2597900420500781,0.3386306505620668,0.24180557320121068
414,1456704186858877,0.09543939241387425,0.2992723590945863,0.2484135582992986,0.04911420382028341,0.14200255233676176,0.2616013586503513,0.3454419677578487,0.24358745992481637
415,1456704186858877,0.09245614349571386,0.30557929722944194,0.2450937590791003,0.048956099005477455,0.1402633547083291,0.26334600109342815,0.3522596509106409,0.24540180937962838
416,1456704186859877,0.08995203159063876,0.31283975546696896,0.2413045676146372,0.048868426119548725,0.1385987804457756,0.26500342625728973,0.35901214344805,0.24715785628794604
417,1456704186859877,0.08793177877103377,0.32086329952303544,0.23716587064190334,0.04885241496995536,0.13705838395875922,0.2665537212901153,0.36561984018442883,0.24877258774282804
418,1456704186872350,0.08639523268703254,0.32945647989732024,0.2328055808287435,0.04890857228942063,0.13568638189394583,0.26797672358419294,0.3719953397990739,0.250172340419045
419,1456704186872350,0.08533752323509437,0.33842709076841737,0.22835533012373346,0.0490364988805476,0.1345197255953639,0.2692512599904253,0.37804410763490387,0.25129416309498614
420,1456704186880349,0.08474924762684545,0.347588148752229,0.22394618396291438,0.049234724846787245,0.1335865524760847,0.2703546033031103,0.38366553711080126,0.25208695274991266
421,1456704186880349,0.08461671588943456,0.3567615886819478,0.2197045275427283,0.049500578128996525,0.13290509258908886,0.2712622210567775,0.38875443028830065,0.2525123561791916
422,1456704186895564,0.08492228212925892,0.3657817033733953,0.21574826568763297,0.04983009883348568,0.13248308023674427,0.27194786175792357,0.39320294028839076,0.25254541538343556
423,1456704186895564,0.08564477296138448,0.37449836556700816,0.21218345849732193,0.05021800787927013,0.13231769067815474,0.2723839898803652,0.39690300971538217,0.25217492740957165
424,1456704186903562,0.08676000654557399,0.3827800541696433,0.20910148921281801,0.050657734024003045,0.1323959898826988,0.2725425500380308,0.3997493003591909,0.25140348378803723
425,1456704186903562,0.08824137767383951,0.3905166666711402,0.20657683503340082,0.05114149838560424,0.13269585321571892,0.27239601574857597,0.40164255516136815,0.25024715033623
426,1456704186918565,0.09006047211844632,0.39762204735347967,0.20466548969926873,0.0516604507996105,0.13318727949072034,0.2719186572319691,0.4024932765124843,0.24873475231374773
427,1456704186918565,0.0921876704357507,0.4040361112432019,0.20340406593704594,0.05220484884425956,0.13383400181558383,0.27108794112204293,0.402225547216323,0.24690675005121734
428,1456704186919351,0.09459270422610681,0.4097264087713838,0.20280958072221997,0.052764268403182435,0.13459527966675153,0.26988595314953867,0.4007807616863306,0.24481372353848393
429,1456704186919351,0.0972451296919455,0.4146889589453347,0.20287989482972937,0.05332783377463179,0.13542775289815856,0.2683007245010523,0.39812098439357624,0.2425145216804073
430,1456704186932565,0.1001146816835202,0.4189481754180661,0.20359474305668188,0.053884455232137404,0.13628724807152737,0.26632735299342525,0.3942316295529009,0.24007416547400912
431,1456704186932565,0.10317147017394555,0.4225557221186333,0.2049172576138043,0.054423062314608146,0.13713044394224821,0.26396883216434236,0.3891231875293994,0.23756161951399504
432,1456704186940358,0.1063859881469997,0.4255881729072174,0.2067958608321477,0.05493282206349346,0.13791632293172967,0.2612365221710339,0.38283182681285644,0.23504755946142006
433,1456704186940358,0.10972892273188974,0.4281434178561323,0.20916639270104426,0.055403334170968196,0.13860736450441696,0.25815022185954967,0.37541884748519705,0.2326022637527731
434,1456704186956160,0.11317079879991657,0.430335854207067,0.21195435102680502,0.0558248004171991,0.13917047670668767,0.2547378409660186,0.3669690871720584,0.2302937471107036
435,1456704186956160,0.11668152174292074,0.43229051638177884,0.21507715443973835,0.05618817178420794,0.13957770064514197,0.25103471265277544,0.3575884469152949,0.2281862304268572
436,1456704186964076,0.12022990702242314,0.43413641788168394,0.21844637400611844,0.05648528010993961,0.1398067415921352,0.2470826088681606,0.34740073264094545,0.22633900541356067
437,1456704186964076,0.12378328341052217,0.435999463460904,0.22196990045066756,0.056708961997320256,0.13984137641854327,0.24292852584480534,0.3365440265456605,0.22480570732557267
438,1456704186978910,0.12730724098639382,0.4379953190071256,0.22555402031657656,0.05685318270083884,0.13967177061375374,0.23862331230939693,0.32516681067821174,0.22363396203325137
439,1456704186978910,0.13076557183006565,0.44022261342581176,0.22910537777380544,0.05691316676913012,0.13929471818647876,0.23422022510224094,0.3134240509680368,0.22286532999985084
440,1456704186979801,0.13412042700324647,0.4427568210536163,0.23253280849669547,0.056885539240631916,0.1387137969372561,0.2297735065965112,0.3014734172542812,0.22253543539693163
441,1456704186979801,0.13733269405334625,0.44564513908845804,0.2357490489260474,0.05676847675929855,0.13793941277050112,0.2253370761612572,0.2894717744607176,0.22267415263256746
442,1456704186993065,0.14036258961074166,0.448902617157877,0.238672341842198,0.056561863367244246,0.13698869473768926,0.22096341029319488,0.27757203573175115,0.22330573066917866
443,1456704186993065,0.1431704588865308,0.4525097176119665,0.24122796544666422,0.05626744121042446,0.1358852005878862,0.21670265225103566,0.26592041945711037,0.22444876666221308
444,1456704187001032,0.14571776757180296,0.45641141079301406,0.24334970009946552,0.05588894214139471,0.13465840176896254,0.21260194698761378,0.2546541051062209,0.22611598908500463
445,1456704187001032,0.1479682534604523,0.4605178582303414,0.2449812217689087,0.05543218319440906,0.1333429365780776,0.20870495404107853,0.2438992504530694,0.22831386225211306
446,1456704187016068,0.14988917757302833,0.4647066991828403,0.2460773900096909,0.05490510800180494,0.13197764448809082,0.20505146507619879,0.23376932098722386,0.2310420553469935
447,1456704187016068,0.1514525888060069,0.4688269071147462,0.2466053882667807,0.05431775764146024,0.13060441186927713,0.20167705366316865,0.2243636839468012,0.2342928186320322
448,1456704187024141,0.15263650456493844,0.4727041099007009,0.24654567176216727,0.05368215848577979,0.12926686312034577,0.1986127138926483,0.2157664239772829,0.2380502980452414
449,1456704187024141,0.15342592060148869,0.47614717995700845,0.24589267870094875,0.05301212152909385,0.12800892878870035,0.1958844915711862,0.20804534229761076,0.24228982910515226
450,1456704187038867,0.1538135934278616,0.4789558138947603,0.2446552622733611,0.052322955826892247,0.1268733253703878,0.19351315616358397,0.2012511115474681,0.2469772886217605
451,1456704187038867,0.15380057072120848,0.4809287477790688,0.24285680027789341,0.05163110519992601,0.1258999928758923,0.19151398392739086,0.19541658019485655,0.2520686235791045
452,1456704187039806,0.15339646135894042,0.4818722106273532,0.2405349339520839,0.05095372091045823,0.1251245487505408,0.1898967180612775,0.1905562551644197,0.25750969217041575
453,1456704187039806,0.1526194389749639,0.4816082271034974,0.23774088735127805,0.05030818499978406,0.12457682338098491,0.1886657471986761,0.18666603187894537,0.26323653313289086
454,1456704187052810,0.15149597682607147,0.47998244019731273,0.23453833899827892,0.049711601425261646,0.12427954348491842,0.1878205076908821,0.1837232698391911,0.2691761370213109
455,1456704187052810,0.15006032344853346,0.47687120035302205,0.2310018586653612,0.04918027540526578,0.12424722867314815,0.18735607618320207,0.1816873142273149,0.27524774363171517
456,1456704187061330,0.14835373909839408,0.4721877183796087,0.2272149655339491,0.0487292039140881,0.12448536224881812,0.18726388734460825,0.18050054199427545,0.28136464206574
457,1456704187061330,0.14642351446487648,0.46588709141428813,0.2232678939161184,0.048371600322113094,0.12498988503867957,0.18753249568944977,0.1800899779910315,0.28743640262782205
458,1456704187076182,0.1443217910201763,0.457969994840789,0.21925516759676122,0.04811847354560898,0.1257470408354377,0.1881483025818082,0.1803694906661915,0.2933714223470533
459,1456704187076182,0.14210420790255773,0.4484848180135575,0.21527308630722664,0.04797827782222152,0.1267335818931055,0.18909618602323797,0.1812425373998104,0.2990796265879062
460,1456704187084177,0.13982841561791648,0.43752805395408356,0.2114172177496302,0.0479566443312101,0.1279173306857588,0.19035999205077883,0.18260538703349433,0.30447514975895534
461,1456704187084177,0.13755251246085826,0.42524286303817777,0.20777996863104478,0.04805620097541999,0.12925808818518444,0.19192286150094073,0.18435070367327977,0.3094788235463172
462,1456704187099182,0.13533346474497415,0.41181589287366116,0.20444828884359695,0.04827648265842566,0.13070887081066232,0.1937673720895063,0.18637133112421758,0.31402032577746825
463,1456704187099182,0.13322556495456028,0.3974725854938216,0.20150155711900455,0.04861393216167299,0.13221744402562502,0.19587548098398647,0.18856407132125824,0.318039874286149
464,1456704187099841,0.13127896973751485,0.38247128922017104,0.19900970679993268,0.04906199087025068,0.1337281038818334,0.19822826519920214,0.19083321050014448,0.321489374584253
465,1456704187099841,0.129538350120084,0.3670965101871425,0.19703166254218826,0.049611277605082355,0.13518364204844402,0.20080547586177713,0.19309353143579192,0.3243329441343893
466,1456704187112843,0.1280416822362434,0.3516516088406676,0.19561415307372287,0.050249851461600985,0.13652741444761685,0.20358494217973377,0.19527257834539435,0.32654675610317596
467,1456704187112843,0.1268192067187501,0.3364511966832919,0.19479093686792368,0.050963550529662546,0.13770541805384798,0.206541881084405,0.19731201720609937,0.32811819904029765
468,1456704187121184,0.1258925859737191,0.32181343879475977,0.19458244194959282,0.05173639320464524,0.1386682673454848,0.2096481916086417,0.199168038387437,0.32904444146423395
469,1456704187121184,0.1252742884312855,0.3080524261313996,0.19499579674054446,0.0525510240807985,0.13937295609723205,0.21287183067241927,0.20081085021458653,0.32933058687141875
470,1456704187136183,0.12496722598052613,0.2954707487445361,0.19602522055580765,0.05338918412476518,0.13978429664474143,0.21617636095063494,0.20222339048292012,0.3289876583064832
471,1456704187136183,0.12496466449519818,0.2843523781500761,0.19765273973955916,0.05423218562212121,0.13987595165545658,0.21952072794407518,0.2033994306748466,0.32803064675264054
472,1456704187143884,0.12525041793903394,0.27495595335178297,0.19984918626342263,0.05506137526687512,0.1396310144354143,0.2228592827295274,0.20434126574508452,0.326476812958432
473,1456704187143884,0.1257993254347952,0.2675085558707486,0.20257541800150167,0.05585857219163436,0.13904214721992791,0.22614204303603352,0.2050571794145307,0.32434437243223685
474,1456704187158663,0.1265780000227157,0.2622000526118086,0.2057836812326414,0.05660647060435131,0.13811133797372702,0.22931518039520551,0.2055588638412116,0.32165163435479793
475,1456704187158663,0.1275458306678525,0.25917808272845766,0.2094190255069989,0.05728899883673129,0.13684936851605678,0.23232171748689912,0.2058589610929476,0.31841661854166203
476,1456704187159655,0.1286562181343467,0.25854376898521575,0.21342068887538015,0.057891628734078354,0.13527509210492034,0.23510240610193509,0.2059688805517767,0.3146571441623139
477,1456704187159655,0.1298580279948663,0.26034825281622076,0.217723402787047,0.05840163221835235,0.13341459972603853,0.23759674336757702,0.20589702715380237,0.31039135984928173
478,1456704187173217,0.1310972415568365,0.26459018545954754,0.22225860749129378,0.058808285521676246,0.1313003213994646,0.23974408985968973,0.20564754924213421,0.3056386528668513
479,1456704187173217,0.1323187717486641,0.27121433438114373,0.2269555965018327,0.05910302485996411,0.12897007573865876,0.24148487618325595,0.20521968132708598,0.3004208317799691
480,1456704187180172,0.13346838859660393,0.2801114588624556,0.231742615221871,0.059279558826695354,0.12646606198449128,0.2427619029235123,0.20460771407936026,0.2947634313491944
481,1456704187180172,0.13449467484371344,0.2911195676106259,0.23654793599528054,0.0593339424650437,0.12383379097501444,0.24352173706119162,0.2038015710119771,0.28869695653774646
482,1456704187195472,0.13535091392766485,0.30402661398585457,0.24130092734735759,0.059264616671182206,0.12112096819234645,0.24371618900428893,0.2027879129292053,0.28225788883050873
483,1456704187195472,0.13599680814510598,0.3185746329740063,0.24593312644736168,0.05907241446648879,0.11837635770107106,0.24330382622640562,0.20155163598462708,0.27548934033498507
484,1456704187204214,0.13639993734893766,0.3344652851110619,0.25037931097755983,0.058760532855855925,0.11564866086864263,0.2422514491588913,0.20007758692761082,0.2684413399756761
485,1456704187204214,0.13653688746127832,0.35136673304805494,0.25457855382448985,0.05833446713488821,0.11298543993579548,0.2405354393512488,0.19835229766507176,0.2611708164178482
486,1456704187219211,0.13639398917152395,0.3689217178184705,0.25847523025236113,0.05780190546414324,0.11043210952569589,0.23814290786773146,0.19636554643883253,0.2537413624599028
487,1456704187219211,0.13596761326996443,0.3867566224696698,0.2620199277067906,0.057172584649037905,0.10803101274924465,0.23507261586995185,0.19411158862928898,0.24622283228898234
488,1456704187219211,0.1352639895075807,0.40449123145729926,0.26517018793127867,0.05645811105161384,0.10582059452288062,0.2313356752924071,0.1915899622917295,0.23869077328239016
489,1456704187219211,0.13429856053343447,0.42174884447854605,0.26789100865345294,0.05567175234000282,0.10383468322049642,0.22695604244399303,0.18880584426347838,0.23122566009139842
490,1456704187233214,0.13309493645208167,0.43816640284724245,0.2701550629550334,0.054828206956178654,0.1021018917420722,0.22197080101425842,0.18576998966232977,0.22391189309661472
491,1456704187233214,0.13168355527341727,0.4534043307305283,0.27194264839721694,0.05394335946179715,0.100645151492275,0.2164302184558863,0.18249832082953396,0.21683654346072587
492,1456704187240174,0.13010016943004712,0.4671558492680221,0.27324142619125363,0.05303403117553857,0.09948139998069927,0.21039756659311354,0.17901124644551547,0.2100878637556882
493,1456704187240174,0.12838427214863757,0.4791555448049207,0.2740460337360316,0.052117735789955946,0.09862145179760937,0.20394871886787708,0.17533279517830094,0.20375362238030256
494,1456704187255735,0.1265775581872926,0.48918694690681297,0.2743576538696813,0.051212447944272634,0.09807008485745587,0.19717155284924964,0.17148964441787815,0.1979193453211322
495,1456704187255735,0.12472249025238147,0.4970888289311539,0.2741836122928844,0.05033638920241939,0.09782636378773084,0.1901651812795036,0.16751011812975486,0.19266655486682452
496,1456704187264200,0.12286102169372047,0.5027599387336121,0.27353705667586975,0.04950783184259485,0.09788420337437297,0.1830390120263445,0.163423222636933,0.1880710919305664
497,1456704187264200,0.12103350867624377,0.5061619339626877,0.27243674817710245,0.04874491727499312,0.09823315365450222,0.17591161575241246,0.15925778176835909,0.1842016049152605
498,1456704187278680,0.11927782870967873,0.5073204213094695,0.2709069717054472,0.048065483101764964,0.0988593690023908,0.1689093755299589,0.1550417184022299,0.18111827742266579
499,1456704187278680,0.11762870625128324,0.5063241251157569,0.26897754823422876,0.0474868915047962,0.09974670781938043,0.1621649060593678,0.1508015111111858,0.17887184195737982
500,1456704187279419,0.11611723081977039,0.5033222808527985,0.26668390731473113,0.04702585229565042,0.10087789673312865,0.1558152488659186,0.14656183894559455,0.17750289266609381
501,1456704187279419,0.11477054082771738,0.498520358538353,0.26406714485235977,0.04669823531559087,0.10223568362399828,0.14999985942582675,0.14234541667702816,0.17704148038300851
502,1456704187301707,0.11361164098983467,0.49217421935852745,0.26117395261797566,0.0465188669960296,0.10380390108294685,0.14485840157875526,0.13817301609038693,0.17750695590818294
503,1456704187301707,0.11265932406310573,0.4845828398328941,0.2580562776945081,0.046501305315010864,0.10556837118881897,0.1405283657226633,0.13406366313172893,0.17890802166240158
504,1456704187302422,0.11192817453491338,0.4760797989349332,0.2547705780742732,0.04665758889004639,0.1075176019872226,0.13714253907850932,0.13003499061512735,0.18124295228865678
505,1456704187302422,0.11142863852914851,0.4670237830657394,0.25137660279196367,0.046997960559136395,0.10964324556450639,0.1348263755273919,0.12610370874151638,0.1844999468450114
506,1456704187315756,0.11116715117056535,0.4577883947809083,0.2479357259235289,0.04753057126263514,0.11194030035201182,0.13369532890491684,0.12228613495130135,0.1886575767521728
507,1456704187315756,0.11114631986708855,0.4487515462938961,0.24450895835765898,0.048261173821383056,0.11440705078904259,0.1338522192372859,0.11859871120782967,0.1936852943699674
508,1456704187323753,0.11136516578303411,0.44028469712663526,0.24115481261960062,0.04919281790991646,0.11704475200591913,0.13538469674606302,0.1150584411921572,0.1995439704220619
509,1456704187323753,0.11181942454542551,0.4327421933491744,0.23792720165319833,0.05032555795395534,0.11985708375666909,0.13836286015583604,0.11168320228096083,0.20618643933476818
510,1456704187338462,0.11250190403373438,0.42645100219967025,0.2348735309391959,0.051656185610661556,0.12284941132932936,0.14283707757948313,0.10849191443308498,0.21355804598942524
511,1456704187338462,0.11340289539678669,0.4217011854965549,0.2320331111829289,0.05317799874970904,0.1260279003011503,0.14883604842109016,0.1055045649280013,0.22159719147291604
512,1456704187339423,0.11451063351551809,0.4187374709131571,0.22943598500326406,0.05488062019181249,0.12939853615527705,0.15636513409704508,0.10274209036338648,0.2302358607677191
513,1456704187339423,0.11581180300371875,0.41775223727096716,0.22710222947379335,0.05674988171524821,0.13296609649147012,0.16540498185788607,0.10022611456741813,0.23940008910657715
514,1456704187352424,0.11729208387403592,0.4188801427804957,0.2250417652435248,0.05876779078700168,0.13673311316503345,0.17591047801190077,0.09797854570225593,0.24901030360445017
515,1456704187352424,0.1189367270555466,0.4221945263890866,0.22325466767141613,0.06091259762973316,0.14069885017284733,0.1878100912479265,0.09602105125762198,0.2589814850142203
516,1456704187360933,0.120731144408937,0.427705628126484,0.22173193473709063,0.06315897755838336,0.14485831854341838,0.20100568719802803,0.09437444596507687,0.26922314484213783
517,1456704187360933,0.12266149112506643,0.4353606132832369,0.22045662642665706,0.06547833790564461,0.14920135511989935,0.21537289682724767,0.09305803356329276,0.27963918938279797
518,1456704187375781,0.12471521132867724,0.4450453437647592,0.21940526386195622,0.06783925145954259,0.15371180305483165,0.2307621030591065,0.0920889403482893,0.2901278043605148
519,1456704187375781,0.12688151173821197,0.456587814158997,0.21854937392192506,0.07020801075031989,0.1583668410252914,0.24700008305405408,0.09148147698204809,0.30058151486412915
520,1456704187383785,0.12915172509563763,0.46976315557566034,0.2178570790825963,0.07254929051814551,0.1631365129605403,0.2638923184497956,0.09124656889371728,0.3108875588196685
521,1456704187383785,0.1315195260060558,0.4843000898865203,0.2172946424081004,0.07482689962075259,0.16798350898710865,0.2812259660668278,0.09139129844496663,0.32092867783474077
522,1456704187398442,0.13398096625300493,0.49988866795630404,0.21682787698854997,0.07700459944411639,0.17286323962466918,0.29877346429119217,0.09191859780533179,0.33058439845824833
523,1456704187398442,0.13653430560264337,0.516189050309658,0.21642333305043485,0.07904696422075985,0.17772423340174737,0.3162967315316443,0.09282712154052243,0.339732866389306
524,1456704187399455,0.1391796338244351,0.532841021874269,0.21604919833619401,0.0809202583722941,0.18250888061330986,0.33355189043713623,0.09411131844172776,0.3482533041633251
525,1456704187399455,0.14191831332202393,0.5494739039191432,0.21567588014693076,0.08259330499030526,0.18715454144868182,0.3502944253074399,0.09576171830630832,0.3560291644688958
526,1456704187414442,0.14475230845066975,0.5657165294113545,0.21527626559903246,0.08403831768224455,0.19159502532571965,0.36628465544933725,0.09776545055384245,0.3629520206647226
527,1456704187414442,0.1476834894120556,0.5812069551003989,0.2148256803324074,0.08523166764453992,0.19576242566159496,0.3812933924328962,0.10010701081856618,0.36892617228789687
528,1456704187420669,0.15071299891270218,0.5956015846166949,0.21430159246713515,0.08615456137113162,0.19958926767759222,0.3951076465137666,0.10276928208895315,0.3738738666232282
529,1456704187420669,0.1538407567008104,0.6085833916092767,0.21368313515959356,0.08679361173165065,0.2030109066708007,0.40753624803359323,0.10573479815133564,0.3777409658942307
530,1456704187435708,0.15706515994698844,0.6198689870701406,0.21295054085977755,0.08714129324271383,0.2059681035219488,0.4184152429608274,0.10898721449939022,0.3805028267845992
531,1456704187435708,0.16038301725642617,0.6292143694270371,0.21208459221478795,0.0871962771552152,0.20840969677275237,0.42761290651827016,0.11251293076327398,0.38217009764778676
532,1456704187443716,0.16378972924888546,0.6364192950193142,0.2110661958616251,0.08696364171320213,0.21029527897664588,0.43503420268974957,0.11630279019553913,0.3827940728976793
533,1456704187443716,0.16727970105305032,0.6413302790579718,0.20987617073177378,0.08645494924835677,0.2115977676476996,0.44062451112099316,0.12035376527377564,0.38247118006263725
534,1456704187457965,0.17084694368890316,0.6438422821520882,0.20849531555563738,0.0856881773087531,0.21230574100080715,0.4443724491952421,0.12467052583780544,0.3813461332830986
535,1456704187457965,0.174485792408491,0.6438991621944146,0.2069047936064789,0.08468748794545747,0.21242539195831545,0.44631162432571364,0.1292667805561821,0.3796132920070445
536,1456704187465966,0.17819164615169666,0.6414929738827965,0.2050868538648918,0.08348282034085419,0.21198195178903875,0.4465211539432438,0.1341662852547729,0.37751582774907927
537,1456704187465966,0.18196162429758425,0.6366621887903138,0.20302589203465254,0.08210929931875563,0.2110204562925777,0.44512480564627904,0.13940342094769664,0.3753424168982937
538,1456704187472980,0.18579504748241182,0.6294889147264875,0.20070983252839208,0.0806064634083618,0.20960576503603073,0.44228865527421996,0.14502325607370184,0.37342132594529515
539,1456704187472980,0.1896936676707284,0.6200952212295167,0.19813177986266745,0.07901732488050604,0.20782177716350414,0.43821723165773857,0.15108101869726942,0.3721119268907386
540,1456704187479980,0.19366159189007778,0.6086387037142239,0.19529184975728886,0.07738727881990862,0.2057698072786591,0.43314820178439406,0.15764091753046103,0.3717938678280741
541,1456704187479980,0.19770487039264414,0.5953074246128093,0.1921990534956987,0.0757628843122516,0.20356610650900198,0.42734574293675304,0.16477426867819178,0.3728543048286891
542,1456704187495176,0.2018307549044219,0.5803143707547961,0.18887307597679084,0.07419055263123295,0.2013385548718187,0.4210928372389352,0.17255690589878467,0.3756737419821531
543,1456704187495176,0.2060466628391708,0.5638915829160956,0.18534575880565843,0.07271519182174592,0.19922261131003893,0.4146827898514651,0.18106587219164944,0.3806111049387376
544,1456704187504113,0.21035890269940064,0.5462841387056762,0.1816620822068023,0.071378867394268,0.19735667116742134,0.4084103005398986,0.19037541269648472,0.38798869456011065
545,1456704187504113,0.2147712358781683,0.5277441793141926,0.17788045103159794,0.0702195405844735,0.19587702975624766,0.4025624066598241,0.20055232515903243,0.398077651601293
546,1456704187518113,0.21928337688730148,0.5085251603031453,0.17407214791707443,0.06926993880153196,0.19491267532243822,0.39740957739710686,0.2116507889793126,0.4110845296454304
547,1456704187518113,0.22388955503501132,0.48887649782126175,0.17031991723653325,0.0685566004141493,0.19458013540016106,0.3931972041852067,0.2237068863561863,0.4271395326055439
548,1456704187526121,0.22857726261081748,0.46903878263828763,0.16671575386451148,0.06809912152258342,0.1949785867315501,0.39013772230872507,0.23673311908410147,0.4462869250019121
549,1456704187526121,0.23332629871205074,0.44923972361630404,0.1633580508987581,0.06790961854924692,0.19618542396429656,0.38840360426811543,0.2507132729314519,0.4684780586242855
550,1456704187532984,0.2381081913446355,0.42969094069762326,0.16034829422592392,0.06799240883323321,0.19825247117067954,0.3881214614823002,0.26559797871421303,0.49356736999928874
551,1456704187532984,0.2428860486476376,0.4105856626725178,0.15778748918245653,0.06834390286616387,0.20120300413666578,0.3893674674381071,0.28130128603951465,0.5213115926169614
552,1456704187541209,0.24761485660987995,0.3920973128912272,0.15577248205895305,0.06895269717914507,0.20502972118803345,0.3921642822021545,0.29769852000699915,0.5513723088089502
553,1456704187541209,0.25224220649473156,0.3743788927792933,0.15439231036262713,0.0697998564165381,0.20969375928108044,0.39647962914481266,0.31462563452709297,0.583321849462794
554,1456704187555986,0.25670939915745605,0.35756300293726717,0.15372469441097159,0.07085937565634201,0.2151248088155467,0.40222665247851225,0.33188020848611727,0.6166524391457421
555,1456704187555986,0.2609528387898229,0.341762290699265,0.15383277902070303,0.07209881655349885,0.22122233748351894,0.40926615427499563,0.34922415931807926,0.6507883830773528
556,1456704187563499,0.26490560639460564,0.32707010392531416,0.15476224258577878,0.07348010966925582,0.22785789088363567,0.4174107526276442,0.3663881777650463,0.6851010066403933
557,1456704187563499,0.2684991042068512,0.3135611711361035,0.15653889462942988,0.07496050924281346,0.2348784025469575,0.42643091447624654,0.38307781544075303,0.7189259823940813
558,1456704187577432,0.27166468636667057,0.30129219848795785,0.1591668718761726,0.07649367897543465,0.24211042435260793,0.4360627099739394,0.3989810795688835,0.7515825905434955
559,1456704187577432,0.27433522934079746,0.29030234544267824,0.16262752135982236,0.07803088320919349,0.24936517332808392,0.4460170259899044,0.4137773124905772,0.7823943374958179
560,1456704187586217,0.2764466390905246,0.2806135966683815,0.16687903496286255,0.0795222591774279,0.2564442690653642,0.4559898766484649,0.4271470702603616,0.8107102125170058
561,1456704187586217,0.27793933176465146,0.27223108441108784,0.17185687533617952,0.0809181494542511,0.2631460015950625,0.4656733658529163,0.43878267002879895,0.8359257260273688
562,1456704187592438,0.2787597455099976,0.2651434367866095,0.17747500613518355,0.0821704732346919,0.2692719266238466,0.4747667921063724,0.44839904189463575,0.8575027830942249
563,1456704187592438,0.2788619296551702,0.25932324134371093,0.18362790799050027,0.08323410719101262,0.2746335398302393,0.4829873441941981,0.45574448817309526,0.8749874416158222
564,1456704187601218,0.2782092176134067,0.25472772529553084,0.19019332806111397,0.08406823374737331,0.279058740048909,0.49007983294665936,0.4606109178209206,0.8880247051082628
565,1456704187601218,0.2767759394156642,0.2512997590158092,0.1970356815413151,0.0846376026414317,0.2823977640902509,0.4958249595306638,0.46284308539154356,0.8963696734074085
566,1456704187616219,0.2745490859656391,0.24896927812623373,0.2040100003296675,0.08491364578597933,0.284528283265918,0.5000457446907858,0.4623463312183377,0.8998945679265091
567,1456704187616219,0.27152980730902493,0.24765518732454306,0.21096630116093,0.08487538865794869,0.2853594074558213,0.5026119170929045,0.4590923236207786,0.8985913532811584
568,1456704187623446,0.26773461067800514,0.2472677573215456,0.21775421701284778,0.08451011480101915,0.2848344395904256,0.5034422290132955,0.45312238545912953,0.8925699241040325
569,1456704187623446,0.2631961190175138,0.2477114593741758,0.2242277071072878,0.0838137605128979,0.2829323341239018,0.5025047861601158,0.44454814982475,0.8820521008256196
570,1456704187637433,0.257963262958071,0.24888810832616767,0.23024964791911884,0.08279103572306208,0.2796679030942135,0.4998155517390095,0.43354948031073004,0.8673619063394108
571,1456704187637433,0.25210081863977857,0.2507001181709399,0.23569612181661628,0.0814552767988323,0.27509086272741756,0.49543525466858446,0.42036975649087543,0.8489127305322827
572,1456704187645435,0.245688265234222,0.25305363286170135,0.24046025470228832,0.07982803954579684,0.269283832891866,0.4894650093894272,0.405308761220765,0.8271920601573727
573,1456704187645435,0.23881799758414626,0.25586129953484416,0.24445548697097258,0.07793844408936486,0.2623594177564574,0.48204100438312897,0.38871352890464345,0.8027444923414728
574,1456704187662438,0.23159297990679642,0.2590445059454435,0.24761817568158243,0.07582229099890214,0.25445651796111934,0.4733286065200054,0.3709676151405967,0.7761537554249419
575,1456704187662438,0.22412397317433896,0.2625349842395286,0.2499094241887647,0.07352097727807656,0.2457360393966008,0.46351617121740535,0.35247931188413084,0.7480244259575093
576,1456704187662939,0.21652650969798298,0.26627575346005855,0.2513160400989994,0.07108024962062469,0.23637616199738118,0.4528087832036701,0.3336693570321819,0.7189639772310483
577,1456704187662939,0.20891780508885108,0.2702214183451907,0.2518505534521606,0.06854884052784758,0.22656732088099638,0.4414221038742726,0.31495867635727526,0.6895657420988315
578,1456704187676156,0.20141378090361547,0.27433787032014023,0.25155028774802046,0.06597703944800057,0.21650704171030946,0.42957646444007586,0.29675664865938256,0.6603933180058864
579,1456704187676156,0.19412633139136207,0.27860145561362554,0.25047555044506015,0.06341525413493297,0.2063947625774169,0.4174913047701468,0.2794503077385577,0.6319668682001843
580,1456704187684156,0.18716091989084518,0.2829976810099709,0.24870707133744718,0.06091261607352104,0.19642676167329054,0.4053800164527794,0.26339480183626013,0.6047516663229817
581,1456704187684156,0.1806145446677323,0.28751952092158106,0.24634285039601717,0.05851567867780259,0.18679129559999885,0.3934452243678554,0.24890533632332826,0.5791490969746738
582,1456704187698158,0.17457407739411135,0.29216539119320767,0.24349458367956434,0.056267249347140544,0.17766404496176377,0.38187454794462555,0.23625073613723918,0.5554901871447997
583,1456704187698158,0.1691149545897081,0.2969368872029794,0.24028382765463605,0.054205387256506636,0.1692039637044037,0.37083691022494597,0.22564868308841918,0.5340316299506646
584,1456704187706157,0.16430019285339895,0.30183643671734695,0.23683804423433227,0.05236258820065305,0.16154962862588243,0.3604794863005567,0.21726261041597103,0.5149541840801598
585,1456704187706157,0.16017969693653616,0.30686505324183927,0.23328664342324332,0.050765166725708626,0.1548161775647683,0.3509253873352631,0.21120017582983958,0.49836328227198895
586,1456704187721158,0.15678982856378482,0.312020365371099,0.22975711502077578,0.04943283617789714,0.14909291093928925,0.34227215830499946,0.2075131887208469,0.4842916487128666
587,1456704187721158,0.15415320192858875,0.31729505008973796,0.22637132554259262,0.04837848096035609,0.14444161914641296,0.3345911308105867,0.20619883855866547,0.4727037024001624
588,1456704187722159,0.15227867495581915,0.3226757412516809,0.22324205637323558,0.047608112123306116,0.1408956895792363,0.32792762584891927,0.20720206118340545,0.4635015038464897
589,1456704187722159,0.15116151865475283,0.3281424357301755,0.2204698710180218,0.047120995846772214,0.13846003614573638,0.32230195300024933,0.21041889150617174,0.4565319748166714
590,1456704187736159,0.15078376523498285,0.33366837820520334,0.2181404129462285,0.046909942926057054,0.13711187557775498,0.31771110662575003,0.21570068061320674,0.45159508338914206
591,1456704187736159,0.15111474907677205,0.33922036748975853,0.21632223786349003,0.046961745349567124,0.13680234628929086,0.3141310225538379,0.22285908358590448,0.4484526577863021
592,1456704187743376,0.15211185973013988,0.3447593963515988,0.21506526864999675,0.047257743508316664,0.13745892778849034,0.31151923834824696,0.23167173456419285,0.4468375007455115
593,1456704187743376,0.1537215256022121,0.35024152191472085,0.2143999322257815,0.04777450518597633,0.13898857530850225,0.3098177994293044,0.2418885177098499,0.44646253021757804
594,1456704187757672,0.15588044060508421,0.35561887227476924,0.2143370039791647,0.048484596100564936,0.14128144050814967,0.3089562669575842,0.253238324738571,0.4470297402352896
595,1456704187757672,0.15851703160249359,0.3608407257961599,0.21486815166988418,0.04935742137999735,0.14421500903585427,0.3088547031131141,0.265436165574312,0.448238815178584
596,1456704187765673,0.16155314523419848,0.36585464061124323,0.2159671377404741,0.05036011664063374,0.14765845409847111,0.30942652955238287,0.27819047302401706,0.4497952359025305
597,1456704187765673,0.1649059149789302,0.3706076450787766,0.2175916074433283,0.05145846535736518,0.151476990820062,0.31058117592982715,0.2912104252140002,0.45141771768444666
598,1456704187781179,0.168489755651617,0.3750475109386948,0.21968536099000271,0.05261781746952641,0.1555360300114937,0.31222646047014935,0.3042131072050261,0.4528448376900618
599,1456704187781179,0.1722184217561966,0.3791241173964669,0.2221809810027981,0.053803985074426706,0.1597049733530553,0.314270672292507,0.3169303376412916,0.4538407315819859
600,1456704187782179,0.176007057401311,0.3827908857506544,0.22500266199068578,0.05498409401375036,0.16386054905752218,0.3166243520935994,0.32911498191215405,0.4541997508627146
601,1456704187782179,0.17977415887147347,0.3860062306759804,0.22806907053325703,0.05612737168829974,0.16788963545833943,0.3192017923669073,0.34054655841153875,0.4537499898701521
602,1456704187795410,0.1834433673353604,0.388734941239546,0.2312960639071239,0.05720585009386504,0.17169154995953115,0.32192229548287987,0.35103593770939584,0.4523556411675628
603,1456704187795410,0.1869450128002228,0.3909493799579873,0.23459912253802667,0.05819496176328387,0.17517979789930638,0.32471122953571707,0.36042895384164253,0.44991821789904074
604,1456704187804180,0.1902173474976866,0.3926303861099549,0.237895407824989,0.05907400853683467,0.1782832854678019,0.3275009066118662,0.36860879274734376,0.4463767538244793
605,1456704187804180,0.19320743758042042,0.3937677974996331,0.24110542266423182,0.059826488680579576,0.18094700150275542,0.33023128161222953,0.3754970856792791,0.441707118827058
606,1456704187818181,0.19587171668378564,0.39436055081328747,0.2441543017783141,0.0604402741758356,0.18313216842318053,0.33285043883271404,0.38105370641098724,0.43592056623866343
607,1456704187818181,0.19817623244442817,0.3944163663056423,0.24697278310516624,0.060907636310098406,0.18481586724755167,0.33531480941053426,0.38527534096553256,0.4290615911212597
608,1456704187826181,0.20009663411803558,0.39395106052518436,0.24949792005347296,0.06122512537644338,0.1859901644351227,0.337589058891017,0.3881929583159708,0.42120516565082183
609,1456704187826181,0.20161795878682084,0.3929875589764597,0.2516735970421694,0.06139331822811957,0.186660796587922,0.3396456032380643,0.38986835260537994,0.41245343816895724
610,1456704187840183,0.20273427788574663,0.3915546970608494,0.2534509050367656,0.061416451787956725,0.18684548387377226,0.3414637447152284,0.3903899448235311,0.40293200608043617
611,1456704187840183,0.2034482652291163,0.38968590790075663,0.2547884166279414,0.06130196065098553,0.1865719470373231,0.34302846100437145,0.3898680281230653,0.39278586837108037
612,1456704187841184,0.20377074115250512,0.3874179041847411,0.25565237877164076,0.061059936629390195,0.18587571482701395,0.34432893450031254,0.3884296397134736,0.3821751437685467
613,1456704187841184,0.20372023238129885,0.3847894588635364,0.2560168273389046,0.06070253047786035,0.18479783155901494,0.3453569672205042,0.3862132649812727,0.37127064850587455
614,1456704187855185,0.2033225617644775,0.38184036836077584,0.2558636245873805,0.06024331991944415,0.1833825905715929,0.34610546468668196,0.3833636141177758,0.36024947308310257
615,1456704187855185,0.2026104488599849,0.37861065047534315,0.25518242062097823,0.05969667095628751,0.1816754160648773,0.34656716896869333,0.3800267232413318,0.349290734706164
616,1456704187863693,0.2016230711024319,0.375139999415845,0.253970534543026,0.05907712029764435,0.1797209975694105,0.3467337854519149,0.37634560282144636,0.33857166424648066
617,1456704187863693,0.20040551629346492,0.3714674923974379,0.2522327427365506,0.05839880592068347,0.17756175519324063,0.3465956012825916,0.372456598989354,0.3282641174754793
618,1456704187877632,0.199008054529651,0.36763151030251806,0.2499809596895305,0.05767497059775013,0.1752366804733262,0.34614164154864324,0.3684865703275524,0.31853152467063095
619,1456704187877632,0.19748516896260018,0.3636698014806658,0.24723380707765283,0.05691755922913945,0.17278055753882932,0.34536034683479505,0.3645509229003238,0.3095262511968269
620,1456704187885635,0.19589430511564684,0.35961959543432165,0.24401608861734536,0.0561369247116203,0.1702235306248865,0.34424068933568264,0.3607524842662683,0.30138733757332553
621,1456704187885635,0.1942943248936223,0.3555176743910743,0.24035821184386955,0.05534164964628018,0.16759096022523945,0.34277359257176687,0.35718112890060894,0.294238590910257
622,1456704187900703,0.19274368343954967,0.3514003350519414,0.2362956077059211,0.054538483660738164,0.16490350791513658,0.34095349281941645,0.35391400037417436,0.2881869864398525
623,1456704187900703,0.19129838423279943,0.3473032045081317,0.23186818573480067,0.05373238907157339,0.16217740066202616,0.3387798761000623,0.35101612391314085,0.2833213157079835
624,1456704187901420,0.19000980900965012,0.34326089748780275,0.22711983258189997,0.05292668095454146,0.1594248332084382,0.33625863946236867,0.34854118197707873,0.2797110064582748
625,1456704187901420,0.18892255915572995,0.33930651803790524,0.22209792927697647,0.052123241407591905,0.15665446387906226,0.33340315702535794,0.3465322511045568,0.2774050454657378
626,1456704187915457,0.18807247199502458,0.33547103160778596,0.21685283968457297,0.05132278296716612,0.1538719519482797,0.3302349665292203,0.34502236908872086,0.2764309592809775
627,1456704187915457,0.18748497648082066,0.3317825650495689,0.21143731403784993,0.05052513478721395,0.15108048676171326,0.32678401322624,0.34403487993982085,0.2767938483826636
628,1456704187923428,0.1871739265894322,0.32826571444067865,0.20590575525343482,0.04972952821511824,0.14828127491637788,0.323088398763258,0.34358354749028625,0.27847551978959784
629,1456704187923428,0.18714100637119313,0.3249409421124586,0.20031331048236206,0.0489348644606904,0.14547397452648436,0.3191936095141866,0.3436724413668504,0.2814338095177282
630,1456704187937429,0.18737574948804792,0.3218241341959211,0.19471478124354766,0.048139953947154215,0.14265708477093658,0.31515125694830326,0.34429562004093645,0.2856022213036346
631,1456704187937429,0.1878561658032364,0.3189263776150744,0.18916339534864268,0.04734372297778992,0.13982830965387605,0.31101743616339905,0.34543668050614523,0.2908900240020375
632,1456704187945423,0.18854992145642743,0.3162539950745469,0.18370953683704572,0.04654538756556038,0.1369849177357446,0.30685086594481825,0.347068294090433,0.297182937673729
633,1456704187945423,0.18941597823476003,0.3138088467190355,0.1783995586073359,0.045744596386999826,0.13412411798562768,0.30271099203829915,0.3491518801283364,0.30434449692995036
634,1456704187960872,0.19040656646154244,0.3115888823358522,0.173274793465225,0.044941545318581175,0.13124346876128606,0.2986562125177355,0.351637571062797,0.31221812377790137
635,1456704187960872,0.1914693518391141,0.3095889189110471,0.16837084438932168,0.04413706589032709,0.1283413320669637,0.29474233526485044,0.3544645910228979,0.3206298932253569
636,1456704187961874,0.19254966990460753,0.30780161721735855,0.16371719398331516,0.04333269010382786,0.12541737787656784,0.29102132270846465,0.3575621134986365,0.3293919478718836
637,1456704187961874,0.19359273723102047,0.3062186222558082,0.1593371390846297,0.0425306941992118,0.12247313427981792,0.2875403300321016,0.3608505965830646,0.33830650738695217
638,1456704187975661,0.1945457819775583,0.3048318071702402,0.15524803199203854,0.04173412292469992,0.11951256835795275,0.28434100212210506,0.36424352921280434,0.34717040761030743
639,1456704187975661,0.1953600444142123,0.3036345239069167,0.15146179073839172,0.04094679297604062,0.11654266799656665,0.2814589630614617,0.3676494751801948,0.3557800807237096
640,1456704187983697,0.19599258345478135,0.3026227321468621,0.14798562149639033,0.04017327052118189,0.11357397777084532,0.27892341700281925,0.3709742941041907,0.3639368504008866
641,1456704187983697,0.19640781389751408,0.30179586515242224,0.14482287634841173,0.03941881537967213,0.11062103124152074,0.2767567900438749,0.3741234561434039,0.3714523645982546
642,1456704187997662,0.19657871250438114,0.3011573049933988,0.14197395804021773,0.03868928541590396,0.10770262602142532,0.2749743811935953,0.37700442146108704,0.3781539311750203
643,1456704187997662,0.19648766691430658,0.3007143852178988,0.13943718826675874,0.03799099900000149,0.10484190380162137,0.27358404086353455,0.37952907834748356,0.3838894752013963
644,1456704188005877,0.1961269779667757,0.30047791047736705,0.13720957372133666,0.03733055908716271,0.10206621305253548,0.27258592934402875,0.38161620200140894,0.38853182085136784
645,1456704188005877,0.1954990432822625,0.30046125212111524,0.13528742407298885,0.03671464760762068,0.09940674128615205,0.271972410630932,0.3831938302245796,0.39198203201305076
646,1456704188020892,0.1946162478401111,0.3006791156931471,0.1336667936624636,0.036149802590003936,0.09689791137914006,0.2717281217322132,0.38420139819378357,0.39417163182303977
647,1456704188020892,0.19350058155020056,0.30114608034680024,0.13234373457227439,0.03564219243243556,0.09457654764217337,0.2718302459320026,0.384591471923031,0.3950636404436687
648,1456704188021890,0.19218300380775283,0.3018750091147397,0.13131436253839165,0.03519740165822592,0.0924808310622013,0.27224901496333714,0.38433097591085846,0.3946524757176262
649,1456704188021890,0.19070257381671385,0.3028754421196115,0.1305747500833203,0.03482024047034932,0.09064907623516316,0.2729484573360779,0.38340188829291527,0.3929628255821797
650,1456704188035894,0.18910535444355134,0.30415210247279045,0.1301206764265133,0.034514587236579304,0.0891183733511182,0.2738873909938222,0.3818014288590029,0.3900476357448623
651,1456704188035894,0.18744308195004905,0.30570364252347,0.12994727960170513,0.034283269646377644,0.08792314732600802,0.2750206368199451,0.3795417797529083,0.38598537638496594
652,1456704188043670,0.18577159029237797,0.3075217241423013,0.13004866460354556,0.034127987309654946,0.08709369368738896,0.2763004143836759,0.3766493796614343,0.3808767545278857
653,1456704188043670,0.18414899754614486,0.3095904719797007,0.13041751599664736,0.034049276025138436,0.0866547570043289,0.27767786663821314,0.3731638363729988,0.37484102541438175
654,1456704188058119,0.182633697648606,0.3118862872947913,0.13104474789404286,0.03404651136814947,0.08662422055799887,0.27910463706389443,0.36913649891469597,0.368012044959396
655,1456704188058119,0.18128223661058673,0.3143779804397873,0.13191920840894863,0.03411794655280718,0.08701197353507019,0.28053440011116687,0.3646287097805044,0.36053420695695204
656,1456704188066117,0.18014717745607134,0.31702717223820454,0.1330274449090296,0.03426077754006661,0.08781901396354595,0.28192424334842486,0.3597097384623859,0.35255840849351244
657,1456704188066117,0.1792750713622401,0.31978891285418204,0.13435352901057637,0.034471228120832836,0.08903683319793322,0.28323581978658907,0.35445440702379427,0.34423816704762666
658,1456704188080789,0.1787046549231565,0.3226124589225756,0.13587893461342523,0.0347446493506686,0.09064711346557902,0.2844362145527385,0.34894045907186394,0.33572597869845366
659,1456704188080789,0.17846538455867514,0.3254421401214689,0.13758245867089092,0.03507563022588132,0.09262175660418323,0.2854984918892745,0.34324577146371377,0.3271699807071474
660,1456704188081713,0.17857639872697686,0.3282182514072548,0.13944017172763207,0.03545811847247475,0.0949232505085753,0.28640191298895634,0.33744554450892245,0.31871097390288083
661,1456704188081713,0.17904596721123667,0.3308779396306698,0.14142538536601076,0.03588555127028309,0.09750536873561319,0.2871318480400984,0.33160963213383726,0.31047985900461506
662,1456704188095608,0.17987144597864121,0.33335610780427616,0.14350863480297832,0.03635099621323161,0.10031418790101262,0.2876794426405866,0.3258001883031596,0.3025955281092501
663,1456704188095608,0.1810397110356672,0.33558641044852733,0.1456576993140626,0.03684730303153239,0.10328939761193302,0.2880411298857304,0.3200697960167788,0.29516322692912755
664,1456704188103834,0.18252800220602755,0.337502429920014,0.14783770733387397,0.03736726583740325,0.10636586741589472,0.2882180936278768,0.3144602041982899,0.2882733829207312
665,1456704188103834,0.1843050740639324,0.3390390978245464,0.15001138109214132,0.0379037936827827,0.10947542288036843,0.28821577691675454,0.3090017419002318,0.2820008914730174
666,1456704188117836,0.18633253335325672,0.3401343739794692,0.15213946653317292,0.03845008529778539,0.11254877031763923,0.2880434934105967,0.30371342785555183,0.2764048568827902
667,1456704188117836,0.18856624714112208,0.3407311469428206,0.15418137769805362,0.038999803287259,0.11551750110532846,0.2877141507695958,0.2986037489834403,0.27152877991200225
668,1456704188125825,0.19095773460143797,0.3407792975244418,0.1560960670771867,0.03954724345165014,0.11831610453451732,0.2872440528921388,0.2936720355261439,0.2674011637970561
669,1456704188125825,0.19345549865624237,0.3402378671679694,0.15784311449734229,0.04008749487638228,0.12088392170834499,0.2866527289892281,0.28891031072535783,0.2640364802023902
670,1456704188140896,0.19600629557117744,0.33907727123969544,0.15938400588538565,0.04061658508654577,0.12316697841558195,0.28596274059573273,0.28430544891965587,0.2614364049146653
671,1456704188140896,0.1985563653491539,0.337281473090729,0.1606835514482673,0.041131601938400854,0.12511963842580057,0.28519942224066586,0.27984145055806076,0.25959121290066767
672,1456704188141611,0.20105264862872377,0.3348499911413352,0.1617113733127401,0.04163078091380505,0.126706020158631,0.28439050544455385,0.2755016426776421,0.258481221501005
673,1456704188141611,0.20344400576510152,0.33179956597657534,0.16244337756788957,0.042113544728312836,0.12790112186947572,0.28356557563888274,0.271270640837152,0.2580781825637201
674,1456704188155612,0.20568244048230516,0.3281652875437255,0.1628631163017169,0.04258048307069311,0.12869160603724736,0.28275533952707216,0.2671359612267153,0.25834653758154985
