,timestamp,roll,pitch,yaw
0,1456704184615859,0.0052445526432733786,0.006839426610294472,0.0061182122864866465
1,1456704184637877,0.00968615695911332,0.009940272675284668,0.006015112513013204
2,1456704184661848,0.013970773777691242,0.012659531764905496,0.005844365635353232
3,1456704184676855,0.017901180904217686,0.01467344923486319,0.005624863140601704
4,1456704184697894,0.021197319252187534,0.015738664967751562,0.005489603220529375
5,1456704184722104,0.02361858147622098,0.01577314635614796,0.005651060431087954
6,1456704184736856,0.025151219528948422,0.014930718016993836,0.006320100337257617
7,1456704184758209,0.02613977191699204,0.013616174513842647,0.007615579739184941
8,1456704184797567,0.027239825695801193,0.012401208059206387,0.009498275278939977
9,1456704184798567,0.02915434780469654,0.01184441211679493,0.011753542546216009
10,1456704184819568,0.03224646455503223,0.012273589548692912,0.01403687981954937
11,1456704184841895,0.0362216721859872,0.013626674751720191,0.01597509226946951
12,1456704184859094,0.04007700182555847,0.015441404677582949,0.01728227323722988
13,1456704184879606,0.04240737815278956,0.01702336277401741,0.017833526875151967
14,1456704184915606,0.04198317807284019,0.01772922183342295,0.017666622751644143
15,1456704184939608,0.03835786425458916,0.0172306675492851,0.016930589298618556
16,1456704184940608,0.032224158029511514,0.015627723308236086,0.0158247141944811
17,1456704184960614,0.02533925411403236,0.013363796850974425,0.014560686100447992
18,1456704184976620,0.020021322898162646,0.01100419945112122,0.013358359442174887
19,1456704184999622,0.018387342676442653,0.009003100448875099,0.012468255398534953
20,1456704185020785,0.021600079834179137,0.007569346201356245,0.01220195101342366
21,1456704185036624,0.029403215623174432,0.00667321844403632,0.012946895595703728
22,1456704185059630,0.04014245431207991,0.00616244360194315,0.015146837185050771
23,1456704185080637,0.05130712748422042,0.005913863137220677,0.019235127037056682
24,1456704185096638,0.060430208790466344,0.005946519911535283,0.025510122986585768
25,1456704185119639,0.0660315885671685,0.0064480622496768105,0.033953073531771384
26,1456704185141640,0.06824444142129756,0.007701133559617987,0.04402829354312812
27,1456704185156646,0.06885221278078073,0.00993306108109211,0.054564778588675394
28,1456704185179653,0.07066187386723354,0.013147704148115759,0.0638506892604842
29,1456704185200660,0.07637832780249507,0.017019242703285933,0.07002335054196243
30,1456704185222661,0.0873390612956133,0.020916125851238507,0.07169865867048672
31,1456704185239850,0.10257352470664981,0.024075633795351107,0.06861692126257381
32,1456704185260858,0.11865819046322251,0.025879227558351585,0.06199278016642802
33,1456704185282566,0.13067313672776962,0.02611251950268513,0.0543298439545431
34,1456704185299365,0.13412451643100665,0.025073731309908188,0.04868893625299736
35,1456704185320615,0.12709157159631984,0.02345765882017686,0.04765930040933564
36,1456704185342563,0.11150624353368405,0.022064151365384935,0.05242278230799338
37,1456704185361119,0.09275277733094166,0.021473709935548764,0.06227362245488626
38,1456704185380777,0.07761016026491482,0.02183637604257065,0.07481115692087825
39,1456704185402789,0.07145398964123865,0.02285564915146431,0.08679805137831219
40,1456704185419789,0.07604880418419581,0.02396790649435483,0.0954074243038231
41,1456704185440872,0.08897762201790045,0.024637300426410373,0.0993776538384247
42,1456704185463094,0.10493547532270049,0.02461994827125991,0.09957884828373151
43,1456704185487605,0.11815626641206567,0.02405119198680665,0.09869781061432123
44,1456704185500610,0.12465625298515888,0.023310864508427,0.10009832745334554
45,1456704185522821,0.12318071719896873,0.022764264959530614,0.10628123970379111
46,1456704185539607,0.11465874017439193,0.02255002920169367,0.11758506357869547
47,1456704185562059,0.100923121353874,0.022542854874283678,0.13171076243246735
48,1456704185583155,0.08372706912678196,0.022502298655985253,0.14435613701502148
49,1456704185599824,0.06460999591685278,0.022302995795159968,0.15084111604473158
50,1456704185621826,0.04543394885814422,0.02209004179291485,0.1481877906012345
51,1456704185642867,0.02895736109921805,0.022251111514249255,0.13677658377044338
52,1456704185659864,0.01883823899497456,0.023219929243888392,0.12066127061362668
53,1456704185688903,0.018839671475767653,0.02523661433909883,0.10612840950170079
54,1456704185702883,0.03146560545947053,0.028207614168346027,0.09900067045955725
55,1456704185719871,0.05658113019909484,0.03172643150595935,0.1019366363834975
56,1456704185741866,0.09070088491551999,0.03520446291026112,0.11304528404811448
57,1456704185770880,0.12748751679463582,0.038010269802078896,0.12652712202533226
58,1456704185779881,0.15950773174301747,0.0395674269111426,0.13519597480403994
59,1456704185801882,0.18058447752156104,0.039445549786685415,0.133965796290796
60,1456704185822918,0.18762135743900532,0.03747995675077298,0.12287685669279852
61,1456704185839889,0.18102527957211229,0.03387300129872286,0.10821095567460069
62,1456704185862136,0.1637626624212661,0.029185789663515035,0.1009015072145166
63,1456704185882507,0.13996483714251937,0.024187946510137826,0.11259854953618173
64,1456704185899536,0.11409825633125284,0.019629605963006298,0.15082453863136394
65,1456704185921314,0.09096265061349071,0.016043754346263733,0.21512027560646335
66,1456704185942511,0.07587746590244426,0.013655562047159795,0.29578880749470166
67,1456704185959519,0.07415552867211338,0.012405742655750505,0.37595856622758805
68,1456704185981221,0.08952670016325334,0.012041530850706653,0.4364668569697432
69,1456704186003222,0.12210773326343936,0.0122221830612255,0.4619109144500832
70,1456704186019222,0.16715705072235307,0.012615267347100357,0.4456752073210367
71,1456704186049224,0.21572899586539562,0.01298816870721251,0.39216034724220084
72,1456704186062732,0.2574087638134392,0.013293743659290954,0.315565277390417
73,1456704186079248,0.28406306167473167,0.013715851978056328,0.2357766526990823
74,1456704186101249,0.2927785225783353,0.014625473102854777,0.17275239929207925
75,1456704186122255,0.2864381418048648,0.016432720455194578,0.14118623990536802
76,1456704186139251,0.2716225238701033,0.01938085541217431,0.1471891584762075
77,1456704186161757,0.2550220007315015,0.0233762737832021,0.18806408076112716
78,1456704186182263,0.24039603198415863,0.02797031545261587,0.2550165316669648
79,1456704186199265,0.22776097966387626,0.0325846976518841,0.33736757305042914
80,1456704186221266,0.21516379629914617,0.0369591687112425,0.42622533948992364
81,1456704186242268,0.20199230301627452,0.04160985613686089,0.5159461181793631
82,1456704186259776,0.19206317335467823,0.04794546109908906,0.6028665222394672
83,1456704186281292,0.1948283627730772,0.05775747175933158,0.6822212032769552
84,1456704186302293,0.22364469540969206,0.07213252125313281,0.7452848716690805
85,1456704186326295,0.2910137990111085,0.09028225355111373,0.7790111574919849
86,1456704186341296,0.4020753358133169,0.10903856499551323,0.7694448904624761
87,1456704186362818,0.5491414008758535,0.12355869236530707,0.7081998730020426
88,1456704186379338,0.7106716865328467,0.12916890670847928,0.5992544020111347
89,1456704186401340,0.8566097208643793,0.12360768516845433,0.4624342806137764
90,1456704186422346,0.9585547082429214,0.10861133285622532,0.3309444694371881
91,1456704186439341,1.0,0.09000042848539788,0.24284064306302408
92,1456704186462094,0.9813943861105934,0.07607336258552778,0.22913067174606921
93,1456704186482752,0.9175854567214046,0.07486502718586498,0.30280374917490765
94,1456704186505761,0.8294286802452677,0.09128561676090548,0.45279090787053045
95,1456704186521555,0.7344899952742574,0.12511847174067267,0.6451135050524832
96,1456704186544557,0.642052007462258,0.17049731320902156,0.8312465977214237
97,1456704186566234,0.5545462990699122,0.21711711924159602,0.961576762880855
98,1456704186581866,0.472758024462886,0.2530781163138783,1.0
99,1456704186604865,0.3995453495601093,0.26866878561139534,0.9347705758824706
100,1456704186626206,0.3390383238033169,0.2596764586047928,0.7815295572009081
101,1456704186641868,0.29309879325708676,0.22867422626395234,0.5772453451319426
102,1456704186664678,0.2592135202829452,0.18364936678248134,0.3675571244377607
103,1456704186686228,0.23200872515343163,0.1347917797915199,0.19275324537980684
104,1456704186701231,0.20696091382551013,0.09113328647798194,0.07772163586724738
105,1456704186724233,0.18317456405773022,0.0584211742729004,0.02872820336197539
106,1456704186746011,0.1631823455076866,0.03858760506064989,0.03652872691568386
107,1456704186762021,0.15010929145363922,0.03037675754546691,0.08304998024353683
108,1456704186784317,0.14436117750857977,0.030534610554709206,0.1484435024928765
109,1456704186805547,0.14222976324478917,0.03514728398996853,0.2162055887768376
110,1456704186821319,0.13748461822954583,0.04081962638860361,0.2754129711087369
111,1456704186844321,0.12502652031244332,0.04538842854333906,0.3203720116165843
112,1456704186865842,0.10430980957180117,0.04798781962048352,0.3487860651168592
113,1456704186881349,0.08042293281687904,0.04859448487304383,0.35974511335835396
114,1456704186904350,0.06223991002733644,0.04745022328035653,0.35253462826952414
115,1456704186925562,0.05873320585553087,0.04474163830941079,0.32670768931040217
116,1456704186941353,0.07529740730511911,0.04063955210444392,0.2832341562166375
117,1456704186964576,0.11162391205093442,0.03551411726502198,0.22594177522927028
118,1456704186986062,0.1617877073545632,0.030054679066328853,0.1621651084872554
119,1456704187002065,0.21624443031646612,0.025156161193239688,0.10183513119153519
120,1456704187024804,0.2647062664411458,0.02164467979428297,0.055107336122201436
121,1456704187045805,0.2986663259756677,0.02002651877470059,0.029471896271234175
122,1456704187061830,0.31280840942747173,0.020390528318576896,0.027537548360590174
123,1456704187084839,0.3053444332380242,0.022464111853842176,0.04628209970699738
124,1456704187106181,0.2778380299210237,0.025748307471815998,0.07792897698060382
125,1456704187121842,0.2349830733372268,0.02967345268896322,0.112103672263913
126,1456704187144878,0.1843738957490627,0.03375364553031766,0.1386206007284367
127,1456704187165656,0.13597265466077488,0.037706526123661994,0.15013176533225353
128,1456704187182200,0.10092540568051855,0.04146649335698589,0.14395632917804568
129,1456704187204214,0.08956148498891225,0.045037752806196756,0.12266001416628122
130,1456704187226214,0.10879512266565287,0.048241533739668184,0.09324220967563311
131,1456704187241175,0.15963247455543386,0.050533438534664694,0.06507200942175177
132,1456704187264700,0.23576963973408563,0.051084869409429995,0.047038156894236474
133,1456704187285680,0.3240781405705865,0.049191913446329304,0.04470545589902413
134,1456704187303421,0.40720650008876236,0.0448613794451597,0.05841953280589532
135,1456704187324422,0.46789738980300133,0.03925223314166004,0.08309702350658066
136,1456704187345445,0.4940682189232299,0.03463767133803009,0.10988408004024401
137,1456704187361934,0.4831894714195178,0.03374696131310629,0.12918000267704455
138,1456704187384440,0.4441782265806881,0.038676785365201506,0.134006840234761
139,1456704187413442,0.39536051955713297,0.049844200027201725,0.1225630442179961
140,1456704187421442,0.3583836494797848,0.0654981600399375,0.09905461583399908
141,1456704187444444,0.34997011431797126,0.08207034150659152,0.07244666616137563
142,1456704187466966,0.37500542164356787,0.09526853656267069,0.05345600377938458
143,1456704187480980,0.42434534830503384,0.10150207269951145,0.05072443449176925
144,1456704187505114,0.47857188106040083,0.09910565948793681,0.06749237360209914
145,1456704187527112,0.5159751292321294,0.08891505415009117,0.10007682154985192
146,1456704187541209,0.5211753623375135,0.07400637901568992,0.13895855380065483
147,1456704187565100,0.4908517224958041,0.0587495918359906,0.1723395103036132
148,1456704187586217,0.43444808563934434,0.04758619603853845,0.1908766517690079
149,1456704187601218,0.3696616425361289,0.0439800978576763,0.19146922382963505
150,1456704187624219,0.3145850273774168,0.049802951439531985,0.17817847913068344
151,1456704187646232,0.2800353290178259,0.06512871165691947,0.159798941977898
152,1456704187663939,0.26579543174450915,0.08821312291531924,0.14544507297248685
153,1456704187685157,0.26249977056035967,0.11549757733954939,0.14048500494444285
154,1456704187707158,0.25763019683480426,0.14180256721603277,0.14470679002348943
155,1456704187728159,0.2418575184902544,0.16112911522057197,0.1532353078565189
156,1456704187745160,0.2124228882065064,0.16824146116808653,0.1592948507959682
157,1456704187766673,0.17272108377342318,0.16052263505429248,0.1571826118176146
158,1456704187788179,0.129525153337945,0.13912319011291158,0.14414760051691614
159,1456704187805180,0.08991806879756199,0.10868701690890882,0.12086207921327118
160,1456704187827183,0.059238386911389454,0.07574685571902394,0.09091006180304223
161,1456704187847185,0.04030071473331232,0.046598623269231323,0.05975953251894316
162,1456704187864910,0.033543287484645225,0.025622834073816145,0.03344367399385027
163,1456704187886418,0.03761211992648997,0.01461292320587148,0.01713590322841656
164,1456704187907427,0.04996274573139512,0.013053376692933855,0.013905608375627524
165,1456704187924421,0.0672408566369428,0.01889803646102285,0.02393212439210763
166,1456704187946424,0.08549839937210688,0.02940328639486182,0.04434739081577133
167,1456704187967877,0.10057239949144546,0.041802306529336634,0.06980850480525526
168,1456704187984661,0.1089154988573565,0.0537893050454635,0.09381610807089501
169,1456704188006892,0.10872790157521862,0.06380608883042006,0.11053688940783336
170,1456704188027900,0.10075745044953166,0.07108525781637175,0.11651705298044615
171,1456704188044664,0.08813212002194382,0.07544189316152379,0.11152830711435505
172,1456704188067112,0.07515111686059042,0.07692794050619882,0.09815388957139085
173,1456704188087833,0.06559855970130098,0.07555379084367565,0.08043190807057089
174,1456704188104818,0.06135576340082625,0.07123805449403624,0.06236424454545862
175,1456704188126853,0.0618466655557039,0.06399396589486947,0.04697513811470827
176,1456704188147612,0.06445306021706781,0.05421840067303404,0.036060906400867114
177,1456704188171861,0.06569904584776154,0.04290785392808685,0.030347850562568102
178,1456704188186848,0.06275327514987629,0.031678564771818775,0.02974572025809762
179,1456704188208116,0.054651001714173496,0.022555451314436394,0.033572153334392674
180,1456704188224850,0.04272250812563968,0.01757570857302067,0.04074613197571813
181,1456704188246852,0.030085246410173096,0.018316090123221836,0.049945684215103876
182,1456704188268093,0.02049882585327727,0.025482463230162445,0.05970768812404963
183,1456704188285105,0.01709889016109094,0.03867465427882902,0.06848616546162235
184,1456704188307105,0.0214567853763068,0.05636878752313394,0.07474131124253075
185,1456704188328103,0.033199463825704385,0.07609479756783845,0.07713407997241585
186,1456704188345105,0.05019864384504043,0.09477334914068387,0.07483416490104935
187,1456704188367104,0.06916719101511075,0.10920356696714097,0.06786302162815622
188,1456704188390118,0.08644312661435144,0.11670591671783195,0.05734502434612186
189,1456704188411119,0.09882228687079572,0.11587448264696755,0.04553720909999174
190,1456704188427120,0.1044226006904506,0.10727470387490384,0.03553054203719683
191,1456704188449122,0.10353154467972067,0.09378794735099165,0.03057604846152383
192,1456704188464643,0.09912644458839816,0.08025919826639166,0.03313257119644227
193,1456704188486161,0.09650000139296766,0.07226764800547958,0.04392974274408803
194,1456704188509162,0.1015864603739651,0.074238728609499,0.06143775383311237
195,1456704188524183,0.11832553066052823,0.08758252431724195,0.08202761075792402
196,1456704188546165,0.14629706969565864,0.10975608927725357,0.10087860818336111
197,1456704188569721,0.18013607132631979,0.1348636950690689,0.11346401943966719
198,1456704188586204,0.21146849196747594,0.15571158091569057,0.11719223010521246
199,1456704188606206,0.232665340544432,0.1665130486005004,0.11251547777666296
200,1456704188629207,0.2404971829466622,0.16510566773754606,0.10282809706921471
201,1456704188646208,0.23758590738660296,0.15375351665143192,0.09301231858224147
202,1456704188666728,0.2306393558771327,0.13822522776244758,0.08729426208047227
203,1456704188689249,0.22632537187582683,0.12554490979893357,0.08751026752592632
204,1456704188706285,0.2272037130421403,0.12128424158890791,0.0925904494519182
205,1456704188726251,0.2302790443281698,0.12735796585700748,0.09931294392514681
206,1456704188749253,0.2291421403472601,0.1411002343081044,0.10377268231564452
207,1456704188766810,0.21824914997363237,0.15606298981177427,0.10289065517496467
208,1456704188785299,0.19642741134602368,0.16442992404974707,0.09549468124277033
209,1456704188808300,0.16743243530950697,0.16017315170124813,0.08268724332027454
210,1456704188830298,0.13765533584935677,0.14152540486660567,0.06734899998863322
211,1456704188845297,0.11286211873280429,0.11157590371918037,0.05291331093782099
212,1456704188868835,0.09589667474133645,0.07680688411310377,0.04194991170058484
213,1456704188890340,0.08617552112198991,0.044466679963494876,0.03526487393225273
214,1456704188905345,0.08073723759866239,0.020113373744852947,0.03193596100848865
215,1456704188928343,0.07606091502741798,0.006305712453141492,0.030144813008565904
216,1456704188950348,0.06972560310716457,0.002645724597984589,0.028245402680648228
217,1456704188965863,0.06119606921086246,0.006726067626905486,0.025480756716321877
218,1456704188988421,0.05157488102006511,0.015317507280902686,0.02207482009486966
219,1456704189010391,0.042753748767621155,0.025307030250296493,0.018821556107476697
220,1456704189025392,0.036597945924908296,0.034218956980352266,0.01651567902472683
221,1456704189048424,0.03450879472926387,0.04040102169468663,0.015541529795029593
222,1456704189070909,0.037266257068016534,0.04304597010579428,0.015760029837963024
223,1456704189085425,0.044875495110445425,0.04216353441566549,0.016656752634863044
224,1456704189108450,0.05633710960860886,0.03850241819207559,0.01762049695297417
225,1456704189130423,0.0695545148925445,0.033355602616637246,0.018215420166450738
226,1456704189145424,0.08163590842179311,0.02821789740583009,0.018351220547739154
227,1456704189168944,0.08960682687307354,0.02436231296619567,0.018305911350682467
228,1456704189190667,0.09129114625905353,0.022481037421052466,0.018604346983674726
229,1456704189205659,0.08605302890286655,0.022543950956276187,0.019803659626932382
230,1456704189228687,0.07517369773787484,0.023951888884762358,0.02226307066602018
231,1456704189251475,0.06174488263762135,0.025926474685147204,0.025963620394198698
232,1456704189265911,0.05008504085483935,0.027944109284910267,0.030421706409880327
233,1456704189288669,0.04483497627223491,0.029973853174790593,0.03473775197772839
234,1456704189311773,0.04997956109408538,0.032369553187020936,0.03780980905811349
235,1456704189326774,0.06800051442846532,0.03546320767092791,0.03868262555220652
236,1456704189348436,0.09926454174610284,0.03910293458154057,0.03691732257507739
237,1456704189380730,0.1417013506056431,0.042453710089223905,0.032826281994082995
238,1456704189386017,0.19082997491035114,0.0442675261245845,0.02747842080529324
239,1456704189409067,0.24020372838727605,0.04357742758894761,0.022517310055630516
240,1456704189431738,0.28235547382873677,0.04051663837644205,0.01992918850868828
241,1456704189445734,0.31030280656597936,0.03684307881843944,0.02183859572922227
242,1456704189468749,0.31951949647320704,0.035803394878936835,0.030231843838820483
243,1456704189490967,0.30995492513893846,0.04117518681981937,0.04639961190321163
244,1456704189507064,0.2873280020359527,0.05565469533739624,0.07003915578112752
245,1456704189528968,0.2627939764589307,0.07915108408610294,0.09836508662910601
246,1456704189551971,0.250392111681056,0.10783001514620107,0.1259606920178778
247,1456704189568165,0.26249878217171885,0.13465548068128688,0.14604059615785775
248,1456704189589062,0.30465480699372033,0.1515839574569598,0.15310596426878245
249,1456704189611028,0.37201503251684737,0.15269367383713764,0.14596573827171958
250,1456704189628067,0.4494866833724459,0.13688936843349395,0.1294505122542701
251,1456704189649063,0.516142244247756,0.10885332387309765,0.11345297282241273
252,1456704189671761,0.5524650667418558,0.0776771139713218,0.10921366713582877
253,1456704189687241,0.5475517211240931,0.05370348145742969,0.12434265275498435
254,1456704189708467,0.503227344137094,0.04490031636092174,0.1589367876007297
255,1456704189730246,0.4331948436330697,0.05416743117062447,0.20474510385814806
256,1456704189747247,0.3574845554214292,0.07845121874631746,0.24789106892987917
257,1456704189768539,0.29471212249103157,0.1098416121943518,0.27400185236331354
258,1456704189791843,0.25567391486490043,0.13824661849428957,0.2735492249292272
259,1456704189807551,0.2408548386221212,0.15479169554026867,0.2451961921886038
260,1456704189828849,0.24221401988701902,0.15476329403116396,0.19591419469077043
261,1456704189851559,0.24774016919539676,0.13893381844271505,0.1381229055609614
262,1456704189866848,0.24664804447965155,0.11272452009756333,0.08534224300379953
263,1456704189889110,0.23339220713182704,0.08369405387751404,0.04816933007925271
264,1456704189912102,0.20921239822157336,0.058628645920314235,0.03179594545580343
265,1456704189927858,0.1806407707023158,0.041527052923938,0.03540396682574513
266,1456704189948859,0.15560996635441043,0.03310326438222743,0.053191004248763926
267,1456704189971887,0.1391387059476939,0.03159930076448844,0.07652088061185357
268,1456704189993894,0.13096515707650558,0.03418788841148536,0.09655607068077719
269,1456704190009012,0.12637460126889857,0.0382171921767114,0.10666664259129602
270,1456704190030896,0.11951393229543718,0.041884551325887275,0.10399878053687082
271,1456704190053900,0.10706045360377636,0.044336874237540555,0.08983741901744792
272,1456704190076635,0.09011181204923996,0.04542680160103785,0.06874631809816252
273,1456704190091634,0.07342650833311186,0.045358322104141396,0.04682200988609255
274,1456704190113550,0.06272208318620706,0.044366108873220476,0.02964915997605307
275,1456704190128549,0.06165346207649787,0.042512657473891394,0.020608095785546236
276,1456704190151345,0.06998199450351125,0.039660875197182886,0.02004392863313295
277,1456704190173563,0.08362940390554992,0.03563300848518023,0.025510218097372743
278,1456704190188078,0.09637421226444753,0.030482883541583437,0.032932297482528954
279,1456704190211113,0.1023208845958479,0.02473161522664137,0.03821610994433738
280,1456704190233073,0.09812519345659587,0.01941231707825555,0.0386951371759819
281,1456704190248074,0.0842407018989457,0.015859342203778378,0.033924590566938306
282,1456704190271586,0.06492234579645617,0.01530853801522655,0.025626506732914823
283,1456704190293091,0.04710679793572791,0.018459854134319664,0.01690976926582456
284,1456704190308092,0.03848867502335631,0.02515322276569395,0.011104810244700452
285,1456704190331093,0.045233287900244126,0.03425695378587111,0.010611188074896317
286,1456704190355094,0.0698986681856799,0.04381704860620711,0.016089537255034227
287,1456704190368985,0.11020514781294187,0.05147689334086294,0.02621344093087083
288,1456704190392080,0.15916720084376654,0.055124443309542435,0.03807284992911197
289,1456704190412998,0.20677076502821576,0.05364299858655814,0.04816402780271053
290,1456704190428998,0.242905751236275,0.04755298298107928,0.0536923340233361
291,1456704190451006,0.26075334480863516,0.03928034973097991,0.0537227746199874
292,1456704190474034,0.25945649962203227,0.0328169364974247,0.04967504376699483
293,1456704190490007,0.2448951721000364,0.0326799084241229,0.04486721292688838
294,1456704190512009,0.22789988849679685,0.04233219848152537,0.04321594211867334
295,1456704190534071,0.22022903870298152,0.06253515176127872,0.04760155844448671
296,1456704190550012,0.22978385080953304,0.09032717159391211,0.05857406596978119
297,1456704190571809,0.257211566136654,0.11926943729389639,0.07393644578756738
298,1456704190593817,0.29560617875001177,0.1411719479925308,0.08941691021102846
299,1456704190610818,0.3334582773169724,0.1488504998586145,0.10026930532501856
300,1456704190631819,0.35930756174990985,0.13891599057965054,0.10326482696829377
301,1456704190654071,0.3659088099242355,0.11347568316477764,0.09827613069223363
302,1456704190670616,0.3523734263847906,0.07999821308101279,0.08873683313006434
303,1456704190691725,0.3238812348950841,0.04927473846761914,0.0807031546044993
304,1456704190713411,0.2893908754518794,0.032100343479248894,0.08075589005285208
305,1456704190730413,0.258290036715954,0.035743927553411145,0.09335974263684252
306,1456704190758421,0.23731511109822068,0.06135086675708541,0.11860162672402712
307,1456704190774014,0.22900730207587447,0.10317005711723443,0.15138278592112142
308,1456704190790939,0.23205671892016125,0.15001860141266976,0.18277868184867294
309,1456704190811940,0.2426673637925816,0.18872310652795277,0.20325940638846005
310,1456704190841718,0.25575204917132244,0.20845310864986102,0.20632197715877532
311,1456704190850713,0.26561020008887326,0.20425005006618052,0.1907587179788452
312,1456704190871766,0.26665955490611276,0.178240402915588,0.16065779820300477
313,1456704190893711,0.2547418846846816,0.13814637735797405,0.12356898258327921
314,1456704190910452,0.22866052784877036,0.09407724744582643,0.08794912532144632
315,1456704190931675,0.1909299380183888,0.05522823438240612,0.06078512282972749
316,1456704190953784,0.14701297740019856,0.027710252799983164,0.04586347300544868
317,1456704190970783,0.10337851351368142,0.013833403425482635,0.043009875422559844
318,1456704190991774,0.06549544819795115,0.012517245831097224,0.04853925693615351
319,1456704191022017,0.03670577216724618,0.020339100731376535,0.05681654698239175
320,1456704191030785,0.018167046278375242,0.03282407254944877,0.06235858715989859
321,1456704191052021,0.009488849073710202,0.045679311924752185,0.06166464717894689
322,1456704191073705,0.009558094575709025,0.05572283295281449,0.054110832462343834
323,1456704191090206,0.01714353902931297,0.06131819508148187,0.04167816948418006
324,1456704191112207,0.031036801197104842,0.062272668029769634,0.02778603249234529
325,1456704191134209,0.049737566511574585,0.05936014560989634,0.01584260379144003
326,1456704191149211,0.07097303554514356,0.053756569003102106,0.008142177491115031
327,1456704191172046,0.09148313625184691,0.04662824296576625,0.005454450450185304
328,1456704191193847,0.10738680034800897,0.03894857308558292,0.007264854990654442
329,1456704191216852,0.11512622703861825,0.031480335317269,0.012359910564271253
330,1456704191231567,0.11263208152414717,0.024826830509958424,0.01940057439903982
331,1456704191253852,0.10015449324064052,0.01948851926096367,0.02724629848418802
332,1456704191276398,0.08031710849648344,0.015896288432402695,0.03498247946019774
333,1456704191291411,0.057367252102761966,0.014412007047799102,0.04177307829087834
334,1456704191313408,0.03605130340680368,0.015300610882151861,0.046743562728147815
335,1456704191336409,0.020683753393725895,0.018682141408868324,0.04905622257786364
336,1456704191351409,0.014702168254305415,0.024467066415004502,0.04818413999769674
337,1456704191373928,0.020587638337734845,0.03228004078606046,0.04422124249522672
338,1456704191389762,0.039832965469184696,0.04139493432143366,0.03801198580720369
339,1456704191412764,0.07273406050532255,0.05072748028088778,0.030987057575507373
340,1456704191434074,0.11799137416606004,0.05894512146613613,0.024772046808405668
341,1456704191449767,0.17229260417525633,0.06474069442038304,0.020772499874072557
342,1456704191472566,0.23018867280281433,0.06726360474884338,0.019951845611988563
343,1456704191501877,0.28464074384407406,0.06660833366582,0.02289856302866668
344,1456704191516876,0.32848224489266864,0.06415207392069464,0.030083199203430763
345,1456704191532576,0.3566243154607727,0.06247257684697802,0.042046065508860614
346,1456704191553804,0.3682528974782347,0.06464644460237029,0.05925291887038894
347,1456704191576969,0.3678470397555375,0.07297933136975154,0.08156173165703924
348,1456704191592999,0.36400919507770824,0.08760081913686085,0.1075792310748829
349,1456704191613996,0.3660731888248462,0.1056648869006548,0.1344299489875166
350,1456704191636997,0.37986881827511315,0.12184068963949185,0.15835611201141384
351,1456704191652996,0.40483264657353524,0.13021036957002055,0.17605684010561268
352,1456704191673722,0.4340295215390179,0.12685287529899195,0.18607187117367124
353,1456704191696212,0.45700754246111547,0.11184586853452291,0.18932937327119112
354,1456704191712227,0.46405869902475533,0.08960325110127802,0.18846634639578788
355,1456704191733499,0.4501253204377467,0.06731445476886329,0.1863664127922552
356,1456704191757215,0.4169524873115911,0.052224847904125626,0.18483432598665303
357,1456704191773090,0.37269208637780327,0.04899955522606893,0.18405594828514002
358,1456704191794067,0.3290269250898113,0.05821712169970874,0.18285427832702617
359,1456704191817041,0.29695105924552156,0.07639430630819743,0.1793804124949937
360,1456704191832075,0.28301026307737215,0.09731638334855988,0.17190714567234813
361,1456704191853049,0.2874490975605058,0.11412336696075098,0.1595114601585846
362,1456704191876851,0.304586009203618,0.12150933573067148,0.14246144226727112
363,1456704191893059,0.32479964297656416,0.11735214139374472,0.1221868750169377
364,1456704191913062,0.3373027711394089,0.10317415557292468,0.1009090359602104
365,1456704191937127,0.33311348753908876,0.08324498550224423,0.08115723891677862
366,1456704191952063,0.30771589564085333,0.06277335839110686,0.0652976092911656
367,1456704191973854,0.2626286646505673,0.04605876557255456,0.05500287878964764
368,1456704191996370,0.20499096980678705,0.035371420736379285,0.050655225000954415
369,1456704192012370,0.14500991105149522,0.03082972669580219,0.050971743945824544
370,1456704192033668,0.09240610223330606,0.031031323049419773,0.053250486441389265
371,1456704192056378,0.05365526343112128,0.03394648487407758,0.054316146653428904
372,1456704192072987,0.031170575469084045,0.03764495708435873,0.05175274950586448
373,1456704192093878,0.024216907391787355,0.040677799939394625,0.04479174903905254
374,1456704192116880,0.030443605731093698,0.0421782123836388,0.03445355284434342
375,1456704192132887,0.04699914404955501,0.041827505666551516,0.022989718006239817
376,1456704192153886,0.07087469408688367,0.03976762490678243,0.012988178356863151
377,1456704192176899,0.0987312483706455,0.03646419367449524,0.006542208172435989
378,1456704192192979,0.12666466880913102,0.03251857160616145,0.0047390303286024785
379,1456704192213980,0.15027163199253726,0.028468248741464725,0.007536205752780739
380,1456704192236984,0.16520193121869256,0.024645250380221494,0.013945995067229879
381,1456704192258882,0.16815348878015973,0.02115251457464266,0.0223812109639911
382,1456704192273399,0.15798099138918534,0.01796781281907691,0.031035574462090085
383,1456704192296618,0.13640467735755699,0.015120608753393114,0.038231419533567686
384,1456704192312620,0.10792034158802749,0.012850247461343674,0.04270560976362968
385,1456704192333956,0.07888791044056853,0.011664883858347883,0.043803968277155665
386,1456704192356629,0.056140373465576814,0.012263991206011652,0.04155016363623667
387,1456704192372644,0.04558320647288447,0.015333804232049646,0.036577477925850574
388,1456704192394973,0.051158409427956304,0.02126411667879356,0.02995125234809046
389,1456704192416971,0.07434959895135095,0.029872942405790245,0.022938050826330537
390,1456704192433102,0.11416594786825926,0.040255313852119515,0.016783795320932618
391,1456704192455047,0.16733648291608688,0.050865938865571184,0.012556464145236456
392,1456704192476767,0.22846206561756457,0.05988424711398789,0.011095615551264888
393,1456704192492775,0.29020744938006193,0.06580809663645246,0.013078421347543535
394,1456704192515776,0.34401085712206875,0.06811183472359644,0.019145245895990145
395,1456704192537041,0.381795684522813,0.06771612270296642,0.029944412553699944
396,1456704192552778,0.39860639345634763,0.06698544283535407,0.04592044936134244
397,1456704192575304,0.3952412188305739,0.0690522380329454,0.06677132868515566
398,1456704192595810,0.379374732152066,0.07651970693918939,0.09077059744011624
399,1456704192611966,0.3638696062419293,0.08998366827506181,0.1144547650839823
400,1456704192635813,0.3621589072912082,0.1071354455751235,0.1332208851192455
401,1456704192657032,0.3823276826986023,0.12315460513355214,0.14295888126794143
402,1456704192673071,0.42276530785712013,0.13251928422649512,0.14211968147376258
403,1456704192695335,0.47189453840634604,0.13151477483640767,0.13308396418014667
404,1456704192716664,0.5124736403691925,0.12018598658494435,0.12181271348399642
405,1456704192738628,0.5285949511102386,0.10267795365798557,0.11560220721517414
406,1456704192755339,0.5122132948288581,0.08573612103969316,0.11987629333010033
407,1456704192775850,0.466330821703342,0.0760624993046644,0.13559065483292781
408,1456704192798947,0.40349756100998435,0.07770620676597875,0.15854219860933766
409,1456704192815964,0.34042013692743395,0.09052707056717388,0.18088963337302963
410,1456704192836964,0.29131433020075903,0.11023343709354771,0.19415975742448235
411,1456704192858959,0.2631180037665457,0.12991135912342805,0.1924518874992283
412,1456704192875861,0.2543740807983029,0.14249809782590678,0.17456183877212275
413,1456704192896309,0.257432328237031,0.14330771180031948,0.14423055457794562
414,1456704192918525,0.2621915136381286,0.13159928374742824,0.10854087876556176
415,1456704192935313,0.2596607040228069,0.11052276838045297,0.07530551488917321
416,1456704192956626,0.24450133591264525,0.08555610908586055,0.05062874685166667
417,1456704192980337,0.21627899385470614,0.062286378721824666,0.03750413970350978
418,1456704192995336,0.17916592058705375,0.044580486121599254,0.0356602482795105
419,1456704193016555,0.14003838999476567,0.033795302070887066,0.04234634634731125
420,1456704193038551,0.10568486264012579,0.029063802991391975,0.053552294019819334
421,1456704193055339,0.08048503323962905,0.028238455681611273,0.06521408946117734
422,1456704193076945,0.06562506361318274,0.028940886064758524,0.07411772414067372
423,1456704193098487,0.059839995831207624,0.029327260855326078,0.07836789095439536
424,1456704193115354,0.060759284567951696,0.028448388310766626,0.07742511679976391
425,1456704193136584,0.06587959686048206,0.026259906454014537,0.0718499015848891
426,1456704193158643,0.07285201783629189,0.023379584369019584,0.06295982089007991
427,1456704193174945,0.07943623634971911,0.020691569080490003,0.05253398263244417
428,1456704193196388,0.08359812395207408,0.01892126507408459,0.04254699148473754
429,1456704193218603,0.08386775134127226,0.01832292256120733,0.0348294770778102
430,1456704193234391,0.07970494492349485,0.018598840993472223,0.030619791848202713
431,1456704193256399,0.071594537076999,0.019097184833759252,0.03013881232758498
432,1456704193279261,0.06084382392208204,0.019224155839648104,0.03243777077268801
433,1456704193294256,0.04926983575219521,0.018887302395281472,0.03570541519630734
434,1456704193318257,0.03896588508886709,0.018725368700208547,0.03797690508943088
435,1456704193338545,0.03219208109101503,0.019944254951750257,0.037924630428602564
436,1456704193354260,0.03128957469275855,0.02377099062450731,0.035333245286555376
437,1456704193377788,0.03846134626886319,0.030759999491081783,0.03103200178314202
438,1456704193398514,0.055316443421675354,0.04029828469064899,0.026354910929381064
439,1456704193414298,0.08221556103681123,0.050587871247560694,0.022440659455784426
440,1456704193445305,0.11762145737328117,0.05918085830145687,0.01975426977835607
441,1456704193458300,0.15777514815947605,0.06390861878889725,0.01808427775559315
442,1456704193474936,0.1970303361608588,0.06386773097522368,0.016993375356216922
443,1456704193497571,0.2290449237851546,0.060055403168537705,0.01641533432544058
444,1456704193518804,0.24872979597160352,0.05532310616614598,0.016980281392124347
445,1456704193541800,0.2544202524139766,0.0535376046509442,0.019807633830898706
446,1456704193557804,0.24931433785277674,0.05813943735243941,0.02583101837622858
447,1456704193578807,0.2411328744856671,0.07057131974527181,0.03499946269050342
448,1456704193593812,0.23953787880759395,0.08921963409799069,0.04579667955157113
449,1456704193617938,0.25205917998235927,0.10946740641132428,0.055431982186891104
450,1456704193638930,0.2804167536513043,0.1250973409353821,0.06081519983179177
451,1456704193654931,0.3192301034065553,0.1306609410748633,0.06005733706637679
452,1456704193677324,0.35792593834424385,0.12385212364118393,0.05384461322773529
453,1456704193698904,0.3849982231331057,0.10677639471055478,0.0458676794214186
454,1456704193713833,0.3926826634444537,0.08544133324455946,0.04179310291346194
455,1456704193737002,0.3799852312923404,0.06760790579969214,0.04698776592506781
456,1456704193759002,0.3527255695318844,0.05990102518365628,0.06394137931317734
457,1456704193774346,0.32059600544324146,0.06537019609947785,0.09062185589850982
458,1456704193796855,0.29273847994020424,0.08240333551640054,0.12066215148788964
459,1456704193820002,0.27412554894948393,0.10528959856857631,0.14546467662984736
460,1456704193834965,0.26441805753600245,0.12616453962259241,0.1573906320400475
461,1456704193856858,0.25936632978470336,0.13769142346850405,0.1526321310939575
462,1456704193878869,0.25346424620968355,0.13558507718498763,0.13249577006625637
463,1456704193893994,0.24232255874227313,0.12002803494780437,0.10264539176516478
464,1456704193917054,0.2239669755949344,0.09536640112492602,0.07086258575577348
465,1456704193938996,0.19916294051703085,0.0682172689110907,0.044434220712774176
466,1456704193961962,0.17110729406985148,0.044890351927326294,0.028143193022464107
467,1456704193977392,0.1444502032108616,0.029315556546079848,0.023344537403098494
468,1456704193998609,0.12352466496886974,0.022286045780562588,0.028154221400374196
469,1456704194021685,0.11032893565163103,0.022061950052073412,0.03848979635306637
470,1456704194037400,0.10347392913013875,0.02573948705106935,0.04954331559725185
471,1456704194058408,0.09899961944929137,0.030601637580862703,0.05721777102328225
472,1456704194081919,0.09275672386426488,0.0349110546178019,0.05912487747907305
473,1456704194096921,0.08295710738377714,0.03803003009858032,0.05491633605782827
474,1456704194117921,0.07138776994259427,0.04008075226203669,0.04596406661587911
475,1456704194141922,0.06264985927929467,0.041461652838821965,0.03462996268813358
476,1456704194157923,0.06192664297254096,0.042459462291010906,0.0234617737451127
477,1456704194178932,0.07247281031782671,0.0430621635169944,0.014576854622135805
478,1456704194201994,0.09396701224051891,0.04296921580926152,0.009329821110472114
479,1456704194216988,0.12229232721747653,0.04173729062899587,0.00822933962008718
480,1456704194238986,0.15064992632530128,0.03898380489061496,0.011026243650396847
481,1456704194260951,0.17150274665284532,0.03457682438913002,0.016903092002465078
482,1456704194277457,0.17873911947240506,0.028755342425917672,0.024703120084111095
483,1456704194299967,0.16950059181417326,0.02214848150674886,0.03313620808070824
484,1456704194321983,0.14520821213736304,0.01569437675025778,0.040919248385697056
485,1456704194336972,0.11145614521493935,0.010486065604061042,0.04686714120676866
486,1456704194367516,0.07671337916849248,0.0075806625503297,0.05001477429190673
487,1456704194380991,0.05018883692886447,0.0078029342739729,0.04984364426759815
488,1456704194396992,0.03957137147941992,0.011567872789005281,0.046573399000288916
489,1456704194419992,0.04937553708689314,0.018748221175965956,0.041335604610075426
490,1456704194441993,0.08025512852534951,0.028620530215576714,0.03601457595564841
491,1456704194456995,0.12917201425404728,0.03992441869334348,0.03268218588616605
492,1456704194480006,0.1900778401259342,0.05105356561135381,0.03279612512241599
493,1456704194501300,0.254869964903316,0.06036800467531967,0.03653039428286652
494,1456704194517014,0.31462405764893275,0.06658471784050274,0.042635961975325355
495,1456704194540017,0.36122059401699724,0.06916540124792257,0.04902625577324203
496,1456704194562017,0.3893199986798565,0.06857383243391514,0.05389894570774507
497,1456704194577528,0.3982250534239092,0.06624311109001227,0.05683167558882121
498,1456704194600037,0.39273167245200535,0.06413000386439761,0.05917002304187491
499,1456704194622039,0.38202504717304864,0.06389335112295415,0.0633096165878329
500,1456704194637042,0.3763946182472552,0.0659969688967271,0.0710901861439336
501,1456704194660040,0.38289752584607334,0.0692494213094504,0.08215535138945465
502,1456704194682057,0.4021879837607877,0.07121763498561338,0.09336548982821487
503,1456704194697058,0.4283703767027981,0.0694973373958943,0.09991575024121943
504,1456704194726297,0.4518462508465068,0.06323453923318412,0.09784463068956842
505,1456704194742061,0.46330075534787185,0.05401706972141881,0.08667171510087948
506,1456704194757099,0.45682556008108316,0.04555655004123529,0.07062326817531675
507,1456704194780074,0.43137262870007836,0.04228065011868256,0.0575556611121462
508,1456704194801348,0.39068284346808657,0.04757114464806201,0.05589498678667087
509,1456704194817086,0.34192545201578556,0.06252285806597757,0.07093613306573159
510,1456704194840088,0.29327786874962264,0.0857309575411147,0.10215697028155302
511,1456704194861130,0.2511429362622293,0.11401569424728167,0.1427624424230862
512,1456704194877876,0.21821938262439936,0.14351918612775671,0.1817479979527736
513,1456704194900881,0.19349387198424384,0.17050927097641777,0.2077241426842317
514,1456704194921883,0.17421434753667892,0.191563896562906,0.21296639702276005
515,1456704194937887,0.15858145419077743,0.20340550683955602,0.19600104224863016
516,1456704194960623,0.14728863120944724,0.20306415085598178,0.16167723686973254
517,1456704194981924,0.1428254089338669,0.18880870830235258,0.11889706698184992
518,1456704195003656,0.14711710868286876,0.16146638575395866,0.07729912874874081
519,1456704195019657,0.15927873967936101,0.1251071056452418,0.04447482846069575
520,1456704195041643,0.17512550799711632,0.08630194816985122,0.024624028932046925
521,1456704195057650,0.1888048044249771,0.05211361808193365,0.01857336447781732
522,1456704195079342,0.19544820083835993,0.027817241184770473,0.02451788293600563
523,1456704195101295,0.19310842943343257,0.015456243094966312,0.03889090445814814
524,1456704195117049,0.1828582802683198,0.01376325085019173,0.05712337252948723
525,1456704195139050,0.16728895750760017,0.019227128475399573,0.07436294575524044
526,1456704195161058,0.14872546108000465,0.02764322128543529,0.08629531170343507
527,1456704195177812,0.12848797275502846,0.03549150020920858,0.09004632201758103
528,1456704195206862,0.10752770238060548,0.040766794865118895,0.08490075090089974
529,1456704195222864,0.08762219250017982,0.043163748826290274,0.07247428397385171
530,1456704195243860,0.07195346625120579,0.04368066786039856,0.056138801623468
531,1456704195259865,0.06447966141477676,0.04382197493315297,0.039843933265065315
532,1456704195281916,0.06842905242600363,0.04471101099982552,0.026790443995853536
533,1456704195303237,0.08477700278198728,0.04649261485971854,0.01850397328743496
534,1456704195318919,0.11147424237296812,0.04829248511759225,0.014666923809246751
535,1456704195341919,0.14371880719140953,0.04872629655613739,0.013693230975865901
536,1456704195362921,0.17507465967669902,0.04666897131050466,0.013690662458802743
537,1456704195379426,0.1989844255168217,0.04186632850780229,0.013338641110564313
538,1456704195402933,0.21025322448443934,0.03507252780138483,0.01234988756116135
539,1456704195422934,0.20623898299059515,0.02767580712755719,0.011443088628351866
540,1456704195438934,0.18753351146161515,0.021065996097199606,0.011950109225810532
541,1456704195461936,0.1578462609007459,0.016115792410294878,0.015248050000554104
542,1456704195483415,0.12291286767548715,0.013033089398914791,0.022203456223722596
543,1456704195499541,0.08873548987957139,0.011599226309271104,0.03280083730851066
544,1456704195523343,0.05998334845343754,0.011599848915382887,0.04607999255197538
545,1456704195543628,0.0393564240388261,0.013176384343507205,0.0603942073291876
546,1456704195559346,0.028036303778893393,0.016888466809229893,0.07386266711499469
547,1456704195582848,0.02659570167590438,0.023439924585303,0.08481403512401176
548,1456704195603848,0.03556343411244182,0.0331989320015867,0.09205370124517931
549,1456704195619854,0.05528368974463068,0.04574390423927396,0.09490402781732474
550,1456704195643586,0.08525916427460775,0.05965757385452961,0.09309850868766434
551,1456704195663586,0.12340529314094452,0.07270699604581024,0.08669989179584346
552,1456704195679598,0.16559115661093932,0.08242616408810359,0.07621012122429159
553,1456704195703864,0.20573486288977103,0.08697226035478357,0.06292009458026204
554,1456704195723863,0.23664364497343246,0.08597406211391058,0.049345894171337654
555,1456704195739610,0.2516431017070104,0.08099066411222629,0.039413964286623936
556,1456704195762611,0.24673759068506826,0.07523993447976807,0.038007654624750906
557,1456704195783832,0.22265587311434087,0.07250041998953997,0.0496664476950527
558,1456704195799829,0.1858820798195185,0.07549413033009097,0.07665679724815706
559,1456704195823832,0.1478906523158363,0.0844368212308046,0.11716161997540182
560,1456704195843834,0.1223893224946272,0.09653737847734414,0.16462395297480498
561,1456704195859833,0.12123842004964862,0.10687461461723659,0.2089954510206781
562,1456704195883860,0.15039993310013322,0.11039375031018281,0.23978219490989672
563,1456704195903709,0.2073702623760076,0.10414000985431833,0.24979538252283745
564,1456704195919710,0.28108676788350967,0.08868308504096777,0.23801445177709896
565,1456704195942931,0.3545751604127526,0.06808157775112215,0.21028878339853938
566,1456704195963713,0.40977542015565066,0.04844086644535497,0.17755930923714547
567,1456704195979723,0.4331122635226622,0.03573599976967859,0.15229718121829516
568,1456704196002853,0.41982084630431316,0.03380652631578019,0.14439247346874334
569,1456704196023852,0.37531486700467587,0.043231972468451965,0.1577171160234738
570,1456704196038733,0.3130815695590637,0.06134915466578644,0.18838234012129476
571,1456704196061850,0.2501162798096552,0.08323513914188325,0.22547629278637646
572,1456704196083201,0.201860204591609,0.10321882656311769,0.2544939581338484
573,1456704196098979,0.1784060863651,0.1164311902221846,0.2625531631602899
574,1456704196121981,0.18266928233671503,0.11999730890828993,0.24335473465240104
575,1456704196142985,0.2102897307375016,0.11360627253103435,0.19962944540523336
576,1456704196158983,0.25092464471514886,0.09932047821810244,0.141918267660314
577,1456704196181993,0.2908784785791624,0.08068125287266484,0.08435107206439406
578,1456704196204998,0.31682169903852264,0.0614597847318883,0.039477300151410856
579,1456704196218999,0.31961886372220105,0.044587042486161126,0.014371906721078352
580,1456704196242001,0.2968354424550296,0.03165816618146454,0.009292516270618832
581,1456704196265004,0.2529589217403006,0.023048096061064397,0.018852180819300894
582,1456704196279549,0.1974757167897687,0.018396681015816096,0.03473520954708737
583,1456704196302523,0.14182923243868006,0.017154963568823123,0.048722243142494966
584,1456704196325524,0.09640255739405813,0.018949192217183226,0.05508605379826982
585,1456704196339552,0.06823613620766338,0.023635101028329678,0.05193111071935911
586,1456704196362551,0.059763047964142314,0.0310589704977976,0.04143769342985676
587,1456704196385807,0.06867512556638508,0.040679149011453954,0.02910861196257875
588,1456704196399841,0.08893590740685788,0.05129096184239302,0.022141824283695863
589,1456704196421915,0.11268993953631343,0.06109829932000496,0.027177448484080432
590,1456704196445787,0.13245867644593184,0.06822918190737488,0.047939122320684154
591,1456704196466915,0.14290050578201474,0.07150864461717633,0.08353538634643871
592,1456704196482423,0.14171936695927645,0.0710458403099917,0.1281592434613402
593,1456704196504931,0.12975765293364447,0.06819805997483319,0.17249584577316995
594,1456704196526154,0.11048499714965576,0.06482755845605383,0.20644837747301323
595,1456704196542953,0.08897553040708484,0.062260428161428356,0.2221896817551767
596,1456704196564936,0.07043492968037829,0.060600937136490216,0.21641221610699693
597,1456704196586952,0.0586024402391213,0.05882237166775989,0.19105157584603175
598,1456704196601953,0.05463109865648021,0.055525157049658394,0.15242379780279716
599,1456704196624954,0.05696380541742575,0.04984530797988039,0.1092725690894637
600,1456704196645958,0.06227337830228059,0.04198042515743747,0.07046071399391463
601,1456704196661967,0.06703461204907604,0.03310929647048247,0.04297675751655957
602,1456704196685354,0.06902823191405641,0.024850407083344808,0.03069411729036515
603,1456704196706355,0.06813790471988429,0.01860643208671793,0.03403012372672937
604,1456704196722357,0.0661360213829444,0.015107962380139898,0.050375640560617566
605,1456704196745359,0.06560969546479335,0.014284819085504786,0.07499821219633884
606,1456704196766361,0.06856494710202898,0.015410356456114572,0.10213843940588785
607,1456704196782368,0.07538707532610252,0.017391164638746386,0.12614094368809375
608,1456704196805376,0.08463526423061117,0.019101581413179903,0.14250375529270198
609,1456704196826684,0.09369934927525023,0.0196997760937811,0.14865167132266974
610,1456704196842379,0.09991122978630586,0.018856443672985362,0.1442075661062615
611,1456704196865380,0.10153773791749558,0.016816196859788395,0.13069231808133575
612,1456704196886547,0.09824472230972173,0.014254254607290162,0.11084227460068954
613,1456704196902246,0.0909592297740873,0.011979338678099175,0.08787064362284801
614,1456704196924247,0.08133754732148496,0.01060606128661979,0.06490863654037768
615,1456704196948249,0.07113658377224172,0.010331339911295628,0.044656541575255546
616,1456704196962255,0.06171793987784994,0.010901197121062302,0.029147115921522235
617,1456704196984723,0.05380470948261025,0.011773710493200508,0.019552198524175144
618,1456704197006753,0.04751709202338676,0.012399837636507136,0.01606951224831979
619,1456704197022494,0.04261456588964061,0.012488106474872099,0.017980139760072514
620,1456704197044494,0.038789104199510135,0.012125721295675934,0.023912496824053484
621,1456704197066833,0.035861536760591145,0.011704752484678853,0.03223960911356937
622,1456704197082522,0.03383249855376458,0.011704835654167824,0.04146514646542692
623,1456704197104531,0.03282621029093913,0.01244916326810927,0.05046462532745767
624,1456704197128532,0.03297422098417147,0.01394739579979242,0.05852262873806202
625,1456704197142533,0.034270125892194234,0.01588457316884335,0.06519995597414982
626,1456704197164534,0.036452782075952275,0.01774618342273926,0.07013674174307624
627,1456704197187855,0.03901182739734987,0.019016782013868593,0.07292135477631646
628,1456704197201900,0.0413666179817128,0.019369910271290862,0.07311911266934469
629,1456704197223851,0.04314306066189357,0.018779701917300117,0.07047179941969753
630,1456704197247748,0.04437920317119293,0.017515660510504415,0.06517786473670097
631,1456704197261809,0.04553748551057492,0.01602333353115184,0.05807931445390345
632,1456704197293805,0.047344241493665604,0.014740414011276627,0.050568153539726136
633,1456704197308806,0.050559494438286834,0.013929395130024495,0.04414790953478635
634,1456704197321876,0.055733293383559764,0.013599654339840153,0.039826988855974924
635,1456704197343830,0.06294149125512388,0.013546777452299477,0.037703729502608
636,1456704197368722,0.07154387903444477,0.013480925564718502,0.03702518503929472
637,1456704197382759,0.0801140320465249,0.013173870674494048,0.03668171542434708
638,1456704197403945,0.08668311120936209,0.012547512947438028,0.0358020932649024
639,1456704197427947,0.0892775886672326,0.011666945685569667,0.0340844234730917
640,1456704197441950,0.08654224463627729,0.010664215312918375,0.031730258890885876
641,1456704197463951,0.07816101222845367,0.009654439375720001,0.02913011341862557
642,1456704197488485,0.0648675050792443,0.008691906371636528,0.026570468204109517
643,1456704197502487,0.04804793866123392,0.007775872815506828,0.024141737568956996
644,1456704197524488,0.029178050659051616,0.0068860663806656576,0.02182988805848267
645,1456704197548489,0.009438916302230248,0.006015730986340227,0.019637430671906618
