,timestamp,x,y,z
0,1456704184615859,0.008365469429943177,0.008022390164099202,0.012573485081159927
1,1456704184637877,0.024490641363770868,0.04735807618839709,0.02711927690894635
2,1456704184661848,0.040492342670767005,0.08135607142409476,0.040968837707806766
3,1456704184676855,0.05658206711466233,0.10579591301216933,0.05334149564433822
4,1456704184697894,0.0734404666946582,0.11844968258277352,0.06332840389801084
5,1456704184722104,0.09132363652039711,0.11969776510308251,0.07011413487474949
6,1456704184736856,0.10909215159594883,0.1126147458245316,0.07337432471477576
7,1456704184758209,0.12402601465116046,0.10220920381892655,0.07356939619678501
8,1456704184797567,0.13273394098377186,0.09378637538617461,0.07185312230825039
9,1456704184798567,0.13273016653220238,0.09105619623915422,0.0696016267855832
10,1456704184819568,0.1238834438838625,0.09498960901667253,0.06789699613274618
11,1456704184841895,0.10901277810639246,0.10400286982411072,0.06734332749292489
12,1456704184859094,0.09321441708740472,0.11516375060414728,0.068290357969636
13,1456704184879606,0.08200798323957556,0.12557447320982376,0.07117274760028011
14,1456704184915606,0.07903673698086024,0.13323989228872496,0.07658013866264353
15,1456704184939608,0.0844511870225341,0.13722482060942318,0.084900859331307
16,1456704184940608,0.09482509538777519,0.1372741996228368,0.09571021760715658
17,1456704184960614,0.1046302038276314,0.13323935786682986,0.10730691338057727
18,1456704184976620,0.10853150101476676,0.12474039799480353,0.11684361947504686
19,1456704184999622,0.10350331270930407,0.11139678544012233,0.12125606692052623
20,1456704185020785,0.08996178597994067,0.09353637436600781,0.1186793575559483
21,1456704185036624,0.07152640307247886,0.07282590125712268,0.10957388126904848
22,1456704185059630,0.05356844673207043,0.052251110199607306,0.09683499775516456
23,1456704185080637,0.04123850185711714,0.03536043391726764,0.0847900729362793
24,1456704185096638,0.03785362941984542,0.025194723618757728,0.07765864022956508
25,1456704185119639,0.0442134707720087,0.023458064495662418,0.07823434974884239
26,1456704185141640,0.058870903554355855,0.030257662260775996,0.08725610830265061
27,1456704185156646,0.07897933285117704,0.044373355967415026,0.10351988814597402
28,1456704185179653,0.1012428514237339,0.06373565447475844,0.12451020528121665
29,1456704185200660,0.12266173436185719,0.08578858771668424,0.1472703644736916
30,1456704185222661,0.1409788797284154,0.10768836966601107,0.16925245787799598
31,1456704185239850,0.15478847932420436,0.12655135258492062,0.18883433323572463
32,1456704185260858,0.16328977610196446,0.13993548274108888,0.20519711241800634
33,1456704185282566,0.165930924084571,0.14647279827005638,0.21761631939131193
34,1456704185299365,0.16248607913142676,0.14635338596289105,0.22479358395264745
35,1456704185320615,0.15384802375303402,0.1414095879378415,0.22499909308899946
36,1456704185342563,0.14299198215164663,0.13481738886150227,0.21714261148752628
37,1456704185361119,0.1350643336105978,0.1306256189677966,0.20198304069799944
38,1456704185380777,0.13606746334735248,0.13320903783409407,0.18245562547210684
39,1456704185402789,0.15067012489913972,0.14647790813474704,0.16278300124438122
40,1456704185419789,0.18022367056494373,0.17268801053503596,0.1469384707372031
41,1456704185440872,0.22179355703435688,0.21114023349890274,0.1373735290739486
42,1456704185463094,0.26850747592977503,0.2575143555312844,0.13464778489596188
43,1456704185487605,0.311228561955591,0.3044536250216653,0.1380891352083173
44,1456704185500610,0.3412356220664967,0.3433355451305851,0.1470531728139152
45,1456704185522821,0.35301747886874574,0.3666084828599067,0.16185192294114475
46,1456704185539607,0.3459480663726715,0.3700134561143635,0.18341368382109685
47,1456704185562059,0.32403585719363825,0.3540932977654707,0.21158942214886853
48,1456704185583155,0.2939245617480417,0.32436448146896124,0.24328357786836496
49,1456704185599824,0.26220648737465196,0.2897268321826304,0.2721041297545076
50,1456704185621826,0.2333940635367239,0.25937799954513074,0.2902825353175744
51,1456704185642867,0.20939249665899717,0.23935734251135196,0.2918607887832602
52,1456704185659864,0.19029988552037522,0.2302785956055524,0.27515910895370893
53,1456704185688903,0.17557735429771176,0.22745741026732627,0.24319769581550454
54,1456704185702883,0.16467391788497082,0.2235689148129478,0.2022453041572458
55,1456704185719871,0.15688072751782917,0.21266553206898378,0.15960386552918382
56,1456704185741866,0.15086679210048362,0.19353169493719327,0.12168846785341725
57,1456704185770880,0.14455857267460717,0.17054341760265915,0.09292597483270842
58,1456704185779881,0.13573358730790233,0.15154149036920048,0.07546694084622566
59,1456704185801882,0.12313283643256191,0.14396329192079138,0.06940011476858853
60,1456704185822918,0.10742739897170515,0.15138948159586527,0.07314900804061762
61,1456704185839889,0.09134033368540906,0.17215489174607548,0.08393017689722057
62,1456704185862136,0.07867276456399049,0.20026011971791494,0.09833417333747717
63,1456704185882507,0.07263046105431013,0.2275899764802092,0.11305287408246124
64,1456704185899536,0.07431092070808965,0.24623520011942124,0.1255632726831602
65,1456704185921314,0.08219264888529643,0.25040608421619287,0.1344728352079827
66,1456704185942511,0.092915077586931,0.2380069702453295,0.13941778187842932
67,1456704185959519,0.10287667653903029,0.21170519681828642,0.1407022020422141
68,1456704185981221,0.10973771177985767,0.17880038044065366,0.1389680189040368
69,1456704186003222,0.11308003432970938,0.14935791473197008,0.1350274562899698
70,1456704186019222,0.11405243719143492,0.13297477916778608,0.129768280113931
71,1456704186049224,0.11437783980468333,0.13533194791529213,0.12400487194739927
72,1456704186062732,0.11535508730228461,0.1557869532249719,0.11833061871108612
73,1456704186079248,0.11739782991676516,0.1869272412534138,0.1131732005885766
74,1456704186101249,0.12022283342691566,0.2165423414242645,0.10910988103017999
75,1456704186122255,0.12329072843654229,0.23172247146273076,0.10715867588338888
76,1456704186139251,0.12601932526280804,0.2237559158086581,0.10863646976861915
77,1456704186161757,0.12772554031096767,0.19182151970941066,0.11454869794606544
78,1456704186182263,0.1276301083674168,0.1438509441827678,0.12503223809541508
79,1456704186199265,0.12512113078173948,0.09430334769040599,0.139448952969175
80,1456704186221266,0.12008618350138757,0.060065090717983514,0.15714385633254682
81,1456704186242268,0.11301796763245643,0.05624976864915546,0.17822168215692544
82,1456704186259776,0.10486020365440854,0.09307636588482396,0.20364669045514272
83,1456704186281292,0.0968249092907702,0.17394356719312304,0.23455410603132457
84,1456704186302293,0.09039488685797496,0.2942685724270459,0.2712242841070672
85,1456704186326295,0.08750949125996432,0.4410430031474388,0.312246963358334
86,1456704186341296,0.09072634650839369,0.5938537423218072,0.35425395827006984
87,1456704186362818,0.10306001500789547,0.7282918616569233,0.39254500239031137
88,1456704186379338,0.1273054280096886,0.8218362736568932,0.4227417900942268
89,1456704186401340,0.16499573119667751,0.8609682015630342,0.44304918797664083
90,1456704186422346,0.21549173075972636,0.8469559561741392,0.45607677219164156
91,1456704186439341,0.2756735563206572,0.797015542120494,0.46890759040592844
92,1456704186462094,0.34029715458351467,0.7387024053659085,0.4905089368445546
93,1456704186482752,0.4028009646151806,0.6989505024558984,0.5269762164398606
94,1456704186505761,0.4564522018183909,0.6929581657764474,0.5770694237763285
95,1456704186521555,0.49571074820193267,0.7188176512877138,0.6312441871215307
96,1456704186544557,0.5173641852373029,0.7604928528767732,0.6753333434456298
97,1456704186566234,0.521053926604674,0.7967937108769974,0.6964070849672637
98,1456704186581866,0.5093358571726802,0.8107426969526205,0.6867290101253183
99,1456704186604865,0.48734159054586046,0.7943592811973051,0.6441167916577211
100,1456704186626206,0.4615184978543588,0.7479544835725207,0.570709410063304
101,1456704186641868,0.43734698101891045,0.6770039751049921,0.4727293060611384
102,1456704186664678,0.4172721440252647,0.5899027963785829,0.36109784092592423
103,1456704186686228,0.4003229055613632,0.49700432672506123,0.250701452087325
104,1456704186701231,0.38347210602179205,0.40929195367288707,0.15712439777103762
105,1456704186724233,0.36351539993198284,0.3358631578181846,0.09209495611522317
106,1456704186746011,0.33838783769213066,0.2813523967051667,0.06008242777651867
107,1456704186762021,0.30765227991466376,0.2450155765128794,0.057711496364247473
108,1456704186784317,0.27233639983157826,0.22204707819089325,0.0759845548172677
109,1456704186805547,0.23441595769222157,0.20617545102303325,0.1040333558190372
110,1456704186821319,0.19635540131825557,0.19207644944566324,0.1327536923595926
111,1456704186844321,0.16099102009884927,0.17676791348668677,0.15694649916413
112,1456704186865842,0.13155273896569258,0.15994186866171223,0.17523972807590069
113,1456704186881349,0.11127021595240359,0.14346003864326498,0.188116038123944
114,1456704186904350,0.10229922090002593,0.13024651621080535,0.19551425625700444
115,1456704186925562,0.10442436734828796,0.1229414203941741,0.19580334986589598
116,1456704186941353,0.11442054645490977,0.12279195492489019,0.18685448461332316
117,1456704186964576,0.12667225475919738,0.1291257528003217,0.1681755226380266
118,1456704186986062,0.13493940287626183,0.13949945676302308,0.14221633519398297
119,1456704187002065,0.13453785420724768,0.15041975137078684,0.11381215771228222
120,1456704187024804,0.12396085509847604,0.15834990104179972,0.08834859301278072
121,1456704187045805,0.10521748392028803,0.16056714516151438,0.07001096497917236
122,1456704187061830,0.08282771192727834,0.15556223104792694,0.06100161353437867
123,1456704187084839,0.0620815027970346,0.14306780464369223,0.06168629313168017
124,1456704187106181,0.047400876146315024,0.12403475342729144,0.07108124794887105
125,1456704187121842,0.041376470168644756,0.1006799388223744,0.08715137268683285
126,1456704187144878,0.04456085766903503,0.07641113482913914,0.10686454262686415
127,1456704187165656,0.05572999438764536,0.0553865737725846,0.12638144317614763
128,1456704187182200,0.07227365979964812,0.04166663825931723,0.1417372178132037
129,1456704187204214,0.09059782146844682,0.03815388401858585,0.1499218597920601
130,1456704187226214,0.10666161672945669,0.04569683040441074,0.1498485367701397
131,1456704187241175,0.11680311184467425,0.06278021954039455,0.1427106619472662
132,1456704187264700,0.1188063382530686,0.08605693650057958,0.13162158715471045
133,1456704187285680,0.11284772904302029,0.11163338258681921,0.1208228611591121
134,1456704187303421,0.10176697130354304,0.13665805381228954,0.11480873230644031
135,1456704187324422,0.09032000832855482,0.16055626387157967,0.11745193255172587
136,1456704187345445,0.08363854929731099,0.18531188826091982,0.13099957079139904
137,1456704187361934,0.08553868653329806,0.2145037777287393,0.15500767590200748
138,1456704187384440,0.0972767392344432,0.2512722774756119,0.18574025688372844
139,1456704187413442,0.11708145558524974,0.2959457563769598,0.21669689958301455
140,1456704187421442,0.14057294719409627,0.34451202383839913,0.24047884687642362
141,1456704187444444,0.16198291583338317,0.38906122186902165,0.2514487426086367
142,1456704187466966,0.17590223020810863,0.4204815436514273,0.24804603263078734
143,1456704187480980,0.17920987274391026,0.43242179573540557,0.2335916929941644
144,1456704187505114,0.17281893482330796,0.42459886940937674,0.21516764535602884
145,1456704187527112,0.16269619768253163,0.4034663055098072,0.2012688930117849
146,1456704187541209,0.15936014575321494,0.37936964812234253,0.19942640050203475
147,1456704187565100,0.17524816737075533,0.36142561811889184,0.2144351368404504
148,1456704187586217,0.22031084103106402,0.35318781239664676,0.24696680509240948
149,1456704187601218,0.2974815773819465,0.35197078452253083,0.2923757890957956
150,1456704187624219,0.40020379039801024,0.3522235094156434,0.34047446333344505
151,1456704187646232,0.513325741532355,0.3503951105064443,0.37758156635394285
152,1456704187663939,0.6170009015579541,0.3477061071290584,0.39105998832103134
153,1456704187685157,0.69202354650598,0.3489107882001919,0.37452458530957894
154,1456704187707158,0.7248390954804627,0.35805235563418303,0.33082054529153637
155,1456704187728159,0.710860296947678,0.3741927081812296,0.27087622734658934
156,1456704187745160,0.6552204014469072,0.3900463968141093,0.2089578989615702
157,1456704187766673,0.5707403712922428,0.3946329368991048,0.15692949479388635
158,1456704187788179,0.47378098362184273,0.3785491514738937,0.12044384159368943
159,1456704187805180,0.3794802552340281,0.3387680011107497,0.09855045231496729
160,1456704187827183,0.29810354414597123,0.2802508208300603,0.08616828896914054
161,1456704187847185,0.2336576880867185,0.2138528911328318,0.07756831358527842
162,1456704187864910,0.18488035281465898,0.15214012317061074,0.06906684727864426
163,1456704187886418,0.14774642896350515,0.10526462272440823,0.06013867208217314
164,1456704187907427,0.11816044228565217,0.07826988240389238,0.05312162885359817
165,1456704187924421,0.09371977412484161,0.07032652782834396,0.052022465481506415
166,1456704187946424,0.07412645215281695,0.07588242658009972,0.060861180177657966
167,1456704187967877,0.06050252033926268,0.08723587219606387,0.08193755943951234
168,1456704187984661,0.05419374750439944,0.0975304896222031,0.1144905122413707
169,1456704188006892,0.05562397902157252,0.10298175978237181,0.15426417564090208
170,1456704188027900,0.0635724976501429,0.10354252069330226,0.19425464807649387
171,1456704188044664,0.07508364737117616,0.10201719139873593,0.22642437936288737
172,1456704188067112,0.08609160149095607,0.1023076644653133,0.24381781277424655
173,1456704188087833,0.09262554487104441,0.10758901903821799,0.2425136591647361
174,1456704188104818,0.09217595057742574,0.11890890286058359,0.22292961730909983
175,1456704188126853,0.08465801493843148,0.1344858904680368,0.189944637902862
176,1456704188147612,0.07252873274198589,0.1499846497213571,0.15148791611142448
177,1456704188171861,0.05993554935391095,0.1598929358927864,0.11595858846733677
178,1456704188186848,0.05117005986576878,0.15961379657448596,0.08958557401762571
179,1456704188208116,0.049037671460664456,0.14737116261094618,0.07488136434082583
180,1456704188224850,0.053838701444202386,0.1250002175502427,0.070672389456862
181,1456704188246852,0.06335551466675789,0.09723941361312767,0.07339969926639683
182,1456704188268093,0.07374147826533056,0.06989626761715721,0.0789357749212495
183,1456704188285105,0.08089845797315172,0.04778210803773111,0.08411446152523018
184,1456704188307105,0.08192271297754869,0.03335772587846522,0.08744403827528689
185,1456704188328103,0.07624333345461326,0.026594073979932534,0.08896834293669476
186,1456704188345105,0.06605271877157773,0.02586632037068317,0.0896871670621862
187,1456704188367104,0.05576656023005799,0.029181437380109806,0.09100730319260214
188,1456704188390118,0.0506492681696373,0.03500928398987228,0.09437423295146602
189,1456704188411119,0.055082686927088766,0.042415589586156925,0.10094087341850584
190,1456704188427120,0.07099572599611408,0.05075216994026863,0.11117111351986249
191,1456704188449122,0.09687709083456415,0.0594773811917311,0.1245079628896065
192,1456704188464643,0.12774256360196068,0.06855032872371976,0.13934815363567307
193,1456704188486161,0.15627876625252674,0.07930056437716142,0.15344678631893455
194,1456704188509162,0.17498604528053538,0.09505982642896632,0.16463053372289968
195,1456704188524183,0.17869428548838515,0.12066394173931691,0.1715386388755039
196,1456704188546165,0.16665084077526116,0.16045571486638063,0.17418665614308854
197,1456704188569721,0.14351887825997026,0.21541567895955158,0.17433089087329007
198,1456704188586204,0.1189108482833506,0.2809497762801657,0.17562469694709945
199,1456704188606206,0.1054336161788875,0.3469899991082139,0.18335405891782128
200,1456704188629207,0.11559395818453175,0.40102620463498556,0.2033927590925448
201,1456704188646208,0.15821040666789202,0.43297727861054064,0.24021560337628067
202,1456704188666728,0.23519046533225696,0.4395852485008499,0.2943548886202734
203,1456704188689249,0.3396575077764801,0.42603835718664224,0.3603359970226496
204,1456704188706285,0.4562667245583337,0.4037530502359941,0.4265169322058401
205,1456704188726251,0.56404731556981,0.3851994605732454,0.47785174264294394
206,1456704188749253,0.6414611058152526,0.37843588118381855,0.5010403874213201
207,1456704188766810,0.6726193394024992,0.38428336227440335,0.4895880284826998
208,1456704188785299,0.6526015509219038,0.39723541716146804,0.44589261927542323
209,1456704188808300,0.5892503445182653,0.4087182371629234,0.3795077869749169
210,1456704188830298,0.5000216353089489,0.41047349609410705,0.30332701597228184
211,1456704188845297,0.40526167360112014,0.39685825841063843,0.23004740791610076
212,1456704188868835,0.32133227563448513,0.3659564438689948,0.16989595205037109
213,1456704188890340,0.2566193999860888,0.3196723009139021,0.12929643606043628
214,1456704188905345,0.21142922795327457,0.2630225416090146,0.11009130995540914
215,1456704188928343,0.18079857123355647,0.20294876630593786,0.1095053198795448
216,1456704188950348,0.1582293122637749,0.14690150456896028,0.1212422221348787
217,1456704188965863,0.1385295227955766,0.10131997752261679,0.1376513002099071
218,1456704188988421,0.11900567562513496,0.07021273344376924,0.1522247872625894
219,1456704189010391,0.09931461931530917,0.05425705513393233,0.1613942285446949
220,1456704189025392,0.08066430243319425,0.05086667993633169,0.16489288577268074
221,1456704189048424,0.06487820494612626,0.05532190733430158,0.16461879540274485
222,1456704189070909,0.0535758504873888,0.06249634188225831,0.16265571721498875
223,1456704189085425,0.04758780657840193,0.06841413858471987,0.1595996470116822
224,1456704189108450,0.046683938751966234,0.07107162949258228,0.1542507688886197
225,1456704189130423,0.04965417587382271,0.07043560449156121,0.14488983083818194
226,1456704189145424,0.05469109532936143,0.06789459646628618,0.13120296699451078
227,1456704189168944,0.05990918201703464,0.06549447069009179,0.11538244209142329
228,1456704189190667,0.06378826245086677,0.06516109731048374,0.10154134535780446
229,1456704189205659,0.06541612185193774,0.0680571992942561,0.09381172303140432
230,1456704189228687,0.06454950204727282,0.07425563715382431,0.09431223414833002
231,1456704189251475,0.06156162704589915,0.0828203548351119,0.10208992224286062
232,1456704189265911,0.057296117976345255,0.09214902881600646,0.11346605292531653
233,1456704189288669,0.05283268713850127,0.10030777535974417,0.12349282273103465
234,1456704189311773,0.04921405508212059,0.10521943001095702,0.12781626697691928
235,1456704189326774,0.04719657318637121,0.1048078368620877,0.1242074952579102
236,1456704189348436,0.04707525519790408,0.09734317774110866,0.11323961172435712
237,1456704189380730,0.04867377320257049,0.08218788527494301,0.09796901603844245
238,1456704189386017,0.0516111717221737,0.060915911188068085,0.08294006640305851
239,1456704189409067,0.05580821221772294,0.03842587086712056,0.07304106974095954
240,1456704189431738,0.06194118452783961,0.02334824663533477,0.07246518149237621
241,1456704189445734,0.07146123228768818,0.027012400702399256,0.08365024914246122
242,1456704189468749,0.08600983910094251,0.06063190566146483,0.10615704143967959
243,1456704189490967,0.10643191792670086,0.13110220823126556,0.13593968986223634
244,1456704189507064,0.13188680520291982,0.2367055497992405,0.16578389049494394
245,1456704189528968,0.15963496951464093,0.36474305563833403,0.1874352263410598
246,1456704189551971,0.18585286404946919,0.4929771189401014,0.19512792831604267
247,1456704189568165,0.20729666737627359,0.5953060211578541,0.1891879370929422
248,1456704189589062,0.22302539542811103,0.6500220939432381,0.17776887883304268
249,1456704189611028,0.2352213502357817,0.6477486217105864,0.17524829893448837
250,1456704189628067,0.24875261364012366,0.5961294199983287,0.1973585991121469
251,1456704189649063,0.26998925067661517,0.5189729885927833,0.2548205897658296
252,1456704189671761,0.3054541379234305,0.44900484969398796,0.34798737360736
253,1456704189687241,0.3600427465947672,0.41618734533167623,0.4645677584766403
254,1456704189708467,0.43417099862049985,0.4363702154048735,0.5815334003953927
255,1456704189730246,0.5204976905771439,0.5053649583573339,0.6712945735296504
256,1456704189747247,0.6028578336575073,0.6009323902940458,0.7108312236959765
257,1456704189768539,0.6601574075023077,0.6915563020594806,0.6904832793463487
258,1456704189791843,0.6748724178883414,0.7481578133794032,0.6178950367977426
259,1456704189807551,0.6416087205984516,0.7538807255476715,0.5143606403594028
260,1456704189828849,0.5700639787305484,0.7081571501559164,0.4053437883949052
261,1456704189851559,0.48030190376335197,0.624270232915182,0.31061601718374726
262,1456704189866848,0.3934629713792437,0.5227647681570541,0.239031631892068
263,1456704189889110,0.32351080595823845,0.42416232055597564,0.18931009769515572
264,1456704189912102,0.27400680182653514,0.3435261025968511,0.15477251924418842
265,1456704189927858,0.24031206893687157,0.28801788404949674,0.12879408056714683
266,1456704189948859,0.2147347463433584,0.25738804391566517,0.10837437445880248
267,1456704189971887,0.1912554476335464,0.24636434694101395,0.09464859652996818
268,1456704189993894,0.16755611867340656,0.24752626671224548,0.09075127349515544
269,1456704190009012,0.14423344159037516,0.25359806597598505,0.09865427390379328
270,1456704190030896,0.12275927847137165,0.2587149002730103,0.11688584945686224
271,1456704190053900,0.10392461289997935,0.25878822471837815,0.14032298577589292
272,1456704190076635,0.08752439361082551,0.2514906450740681,0.16200437833909737
273,1456704190091634,0.07296900944477167,0.23630532079852032,0.17581446060721684
274,1456704190113550,0.06002779610577559,0.2145543278183528,0.17852696010048302
275,1456704190128549,0.04909700433021127,0.18900280853688603,0.170276930587773
276,1456704190151345,0.04092005294572176,0.1629613813844213,0.15364824159570428
277,1456704190173563,0.0360935916678969,0.13928875236501756,0.13235850612648414
278,1456704190188078,0.034708262684422085,0.1197471249206451,0.11036318638211054
279,1456704190211113,0.03625700941479047,0.10488663642280799,0.09137368486002258
280,1456704190233073,0.03978025379721305,0.09436446738899314,0.07827124865622336
281,1456704190248074,0.04415861054348342,0.08744481007499204,0.07223918455119101
282,1456704190271586,0.04840423154286987,0.08340866860391913,0.07211598133593161
283,1456704190293091,0.05176264631342736,0.08172186748084086,0.07465094152007092
284,1456704190308092,0.05355515098968813,0.08195583273155273,0.07582859898762932
285,1456704190331093,0.05294950493744246,0.0835634134477976,0.0727008120520211
286,1456704190355094,0.04901277494193116,0.0857075231588572,0.06479584783015609
287,1456704190368985,0.04126774294978818,0.08738611184919945,0.054398277269701235
288,1456704190392080,0.030578495738965775,0.08799025542597594,0.045619344495615194
289,1456704190412998,0.019816441820971656,0.08817362793612145,0.04277085193398376
290,1456704190428998,0.013718537388306818,0.09062157957202013,0.048797428641834305
291,1456704190451006,0.017705289660365484,0.10013344543589288,0.06437321110144102
292,1456704190474034,0.03595224032622805,0.12255246119838385,0.08786174585382808
293,1456704190490007,0.06942582390157151,0.1625975543192328,0.11589542903689708
294,1456704190512009,0.11474492785790595,0.22133380739847971,0.1441373167740669
295,1456704190534071,0.16455136385222377,0.29437788298964757,0.16797481257234698
296,1456704190550012,0.20954158813842866,0.3717213848580216,0.18322576202330945
297,1456704190571809,0.24152506043702132,0.43948385740858703,0.18701521826950201
298,1456704190593817,0.25620879717821565,0.4833567369156052,0.1787066181353263
299,1456704190610818,0.2544332894381451,0.4930611520013284,0.1604632658973023
300,1456704190631819,0.24150277584393237,0.46660050392339397,0.1370299396633098
301,1456704190654071,0.22537847533041433,0.4125368006156464,0.11465694097235082
302,1456704190670616,0.21478680009467188,0.34869041009931007,0.0994620847843311
303,1456704190691725,0.217604493813357,0.29705886931839004,0.09574696084664934
304,1456704190713411,0.23923477254393255,0.2766767915384863,0.10482558101048689
305,1456704190730413,0.2808618896026948,0.29724483856930506,0.12477303828510929
306,1456704190758421,0.33809312741933173,0.35600253097280976,0.15116814921015723
307,1456704190774014,0.4008951566932233,0.43893947415614354,0.17850399707584758
308,1456704190790939,0.4556996725762057,0.5257615604115214,0.20164817993780942
309,1456704190811940,0.4897867612812457,0.5965784625390563,0.21674746081199367
310,1456704190841718,0.4963340490255761,0.6376117702051174,0.22143624340260298
311,1456704190850713,0.4771404010134572,0.6438664458328732,0.21485896758360734
312,1456704190871766,0.44102848023946273,0.6183957123282272,0.19810840349260092
313,1456704190893711,0.3989670643961359,0.5693151282188705,0.17489572313633764
314,1456704190910452,0.35913092888741716,0.5062245104925215,0.15145398445890818
315,1456704190931675,0.3245815384902048,0.4374557706074031,0.1349416935231603
316,1456704190953784,0.2940700541001648,0.3689535031697986,0.13081982379617496
317,1456704190970783,0.2646460048327057,0.30459075250483003,0.14059145978138546
318,1456704190991774,0.23423311655267162,0.24692636082051442,0.16113747630228586
319,1456704191022017,0.20294231512772193,0.19765289350292536,0.18598182577715874
320,1456704191030785,0.1729155350853171,0.15777828899752624,0.2078419577470618
321,1456704191052021,0.1471871689805801,0.12780743265378416,0.221181569170405
322,1456704191073705,0.12824092996390318,0.10785174284334323,0.22350963647971087
323,1456704191090206,0.1168922856036389,0.09746377562215465,0.2150152992591225
324,1456704191112207,0.11192926606290383,0.09524887248204011,0.1973139880979091
325,1456704191134209,0.11058584009105697,0.09858103210192741,0.17259625681536073
326,1456704191149211,0.10958222699675216,0.10379479624554777,0.14375092893720853
327,1456704191172046,0.10629242416520036,0.10698431980209927,0.1147789758253797
328,1456704191193847,0.09957530791902466,0.10513148065091794,0.0903862838835864
329,1456704191216852,0.0899437870816844,0.0970402546828287,0.07448507282224992
330,1456704191231567,0.07904888392753502,0.08369262191944754,0.06848471680839273
331,1456704191253852,0.06877559604518385,0.06795552909693842,0.07057722883797082
332,1456704191276398,0.06040931214068341,0.05374524474691399,0.07656047256303339
333,1456704191291411,0.05426585196415503,0.044812144030225855,0.08175273989123678
334,1456704191313408,0.04990560054429603,0.043425725354275115,0.08296111464964825
335,1456704191336409,0.04670374062228819,0.049371113639432064,0.07957659574061178
336,1456704191351409,0.04435994291707731,0.05964232566573485,0.07345994477158306
337,1456704191373928,0.0430386664234181,0.06904618275550001,0.06788174857254843
338,1456704191389762,0.043114745007477306,0.07173815490431419,0.06610047708402153
339,1456704191412764,0.04474005474784352,0.0634840461321566,0.07018569894116104
340,1456704191434074,0.047554732179872994,0.044097191731833824,0.08046383479303927
341,1456704191449767,0.05084169331479572,0.01915043515783465,0.09559239084792251
342,1456704191472566,0.05422972947923236,0.0,0.11302950665067439
343,1456704191501877,0.05866939636070949,0.0015657015060656539,0.12972531962844694
344,1456704191516876,0.06700284503725744,0.038076813243427585,0.14298688226830156
345,1456704191532576,0.08339083363089023,0.11783798936307291,0.15135884342387887
346,1456704191553804,0.11142246049345371,0.23872250983974916,0.15516291647512373
347,1456704191576969,0.15170320122626685,0.38628129042034354,0.1564065701392093
348,1456704191592999,0.2004052884539102,0.5357835893596591,0.15809481248917806
349,1456704191613996,0.25000280771011035,0.6581385510610316,0.16325051431617596
350,1456704191636997,0.29212918743556787,0.7280345717305823,0.17401519757322867
351,1456704191652996,0.32101908444172617,0.7317537435260074,0.19114501574395804
352,1456704191673722,0.33561601752090975,0.6723455740860823,0.21410503315823742
353,1456704191696212,0.33954208129022745,0.5705135673171133,0.2417153400712059
354,1456704191712227,0.339552422763424,0.4602663023744197,0.27288533353356265
355,1456704191733499,0.34344411813207204,0.37962840623082456,0.30670226495568514
356,1456704191757215,0.357815399064286,0.3586370666438629,0.34147239892392295
357,1456704191773090,0.38575991676788624,0.40853152044037816,0.37324595063750493
358,1456704191794067,0.4249789145684393,0.5164147981831614,0.39520234934873694
359,1456704191817041,0.4673723246743524,0.6482615020499328,0.3991354550409911
360,1456704191832075,0.5011868176766408,0.7601154471167976,0.3789176392285729
361,1456704191853049,0.5156273486452106,0.8136299245660136,0.3341471256221191
362,1456704191876851,0.5058034252453735,0.78964135096435,0.2716200458749892
363,1456704191893059,0.4749188290671557,0.6940902389503858,0.20341616613027652
364,1456704191913062,0.43223268877398596,0.5543114235087128,0.14246634076075781
365,1456704191937127,0.38821357132424056,0.4081192401696446,0.09801182537525771
366,1456704191952063,0.34988060222516193,0.2905606263099658,0.0733015192088533
367,1456704191973854,0.3187252460853482,0.22315468785258735,0.06630236178787084
368,1456704191996370,0.291790648545528,0.2089122610583238,0.07232293249438915
369,1456704192012370,0.2646633160855846,0.23416111825555921,0.08658533691499126
370,1456704192033668,0.23429627027176742,0.2756771055808968,0.10534736565461492
371,1456704192056378,0.20021736151627648,0.30987263258336006,0.12555167842839088
372,1456704192072987,0.16410513027460338,0.3205871414729591,0.1440683824871607
373,1456704192093878,0.12865090247672284,0.3030663084910125,0.15763801064121036
374,1456704192116880,0.09658084000499575,0.2633624406152432,0.16373362627084373
375,1456704192132887,0.07016525303296929,0.21412272119656012,0.16161857793052656
376,1456704192153886,0.05105378479820511,0.16888816129927847,0.152697096682587
377,1456704192176899,0.04010674942180382,0.13713270721152038,0.13984681670008717
378,1456704192192979,0.037097370462436476,0.12158044717704806,0.12613292565821232
379,1456704192213980,0.04050790949858824,0.11839359564861017,0.11361378013818119
380,1456704192236984,0.04774411077276695,0.11987354450292075,0.10282082380073798
381,1456704192258882,0.05583176051110578,0.11845529354933185,0.09308762464211952
382,1456704192273399,0.06230664794633579,0.11025910439051871,0.08341339515635218
383,1456704192296618,0.06587320606750056,0.09662139589711112,0.07328498177841752
384,1456704192312620,0.06655794395330246,0.08294333419026305,0.06303860466085831
385,1456704192333956,0.06536421384564334,0.07550095314313453,0.053721388904351096
386,1456704192356629,0.06364107154387869,0.07784837676013354,0.04665682616451178
387,1456704192372644,0.06243879590604544,0.08857421897019015,0.04293607271845189
388,1456704192394973,0.062087911784735536,0.10147555925638928,0.04301676824774811
389,1456704192416971,0.06216037342431685,0.10813746353040767,0.04659989515647688
390,1456704192433102,0.0618538240250632,0.10191609221547698,0.05287447333679213
391,1456704192455047,0.06065985805531185,0.0817637569999972,0.06102433151541121
392,1456704192476767,0.0589868930319134,0.054371542177133685,0.07072155847560563
393,1456704192492775,0.058383462868420416,0.03365363048960701,0.0823268136300204
394,1456704192515776,0.06122696819532927,0.03736867632285465,0.09663125045212366
395,1456704192537041,0.06999347436836055,0.08144017576197753,0.11410909367352456
396,1456704192552778,0.08629560543716491,0.17334956652905184,0.13387665755728562
397,1456704192575304,0.10990945166521807,0.30686508905707494,0.15295464508464826
398,1456704192595810,0.1382064265825418,0.4608044497565838,0.16670255898522188
399,1456704192611966,0.1665342240853545,0.6035610336103103,0.17088279572677414
400,1456704192635813,0.18974930764843562,0.7025482453961533,0.1646595978035576
401,1456704192657032,0.2043837435938402,0.7350586349124005,0.15278916703342682
402,1456704192673071,0.21044588298701628,0.696382775329947,0.1453685426617575
403,1456704192695335,0.2120492357146519,0.602488303944957,0.15484276634547378
404,1456704192716664,0.21667656056376777,0.48635460212397236,0.19140194717832945
405,1456704192738628,0.23325470142071694,0.3884853588464643,0.2584302782231416
406,1456704192755339,0.26916153934503484,0.34397675307930664,0.3494840357652296
407,1456704192775850,0.3264605255734153,0.37050819787799755,0.4480822556903747
408,1456704192798947,0.39863488131910424,0.4620056525938359,0.5313218682058087
409,1456704192815964,0.4701991404868444,0.5907378044329404,0.5771500904788467
410,1456704192836964,0.5211035716748571,0.7172587785345476,0.5728445012495951
411,1456704192858959,0.5350321433625724,0.8043603896604673,0.5204126778517145
412,1456704192875861,0.5073580482778905,0.8293195598924796,0.4355185250440529
413,1456704192896309,0.4478593823369137,0.7894921911606121,0.340361618521674
414,1456704192918525,0.3763520236790367,0.6998423460100018,0.2547113914088213
415,1456704192935313,0.31374835117370653,0.5850206700976375,0.1898686958878555
416,1456704192956626,0.2734353675011756,0.47024160352649175,0.14769112662502193
417,1456704192980337,0.2571070508898579,0.37419605145182355,0.1235991285008018
418,1456704192995336,0.25639504858054274,0.30552349273521295,0.11090352457384188
419,1456704193016555,0.25863188476711313,0.26308828657667116,0.1041275956193962
420,1456704193038551,0.25327700397629604,0.23921186781531845,0.1002907026150863
421,1456704193055339,0.23576925437612137,0.22410423037878788,0.09841930010825628
422,1456704193076945,0.20761068336702634,0.2095747011727727,0.09831967261119773
423,1456704193098487,0.17380910495358565,0.19087145167786876,0.09967718233709967
424,1456704193115354,0.13983010452788122,0.16670180158586684,0.1019371975283468
425,1456704193136584,0.10967366870908674,0.13833434789240726,0.10465827028187155
426,1456704193158643,0.08544992482087599,0.1086571189136457,0.10772066541951092
427,1456704193174945,0.0678690507224039,0.08140633697486419,0.11108223375298615
428,1456704193196388,0.056865622944876446,0.06031635529307279,0.11427899730615666
429,1456704193218603,0.051938962666663424,0.04810881133849711,0.11613090926329842
430,1456704193234391,0.052190406064255644,0.04563522127429857,0.11505138634029692
431,1456704193256399,0.05623903316925949,0.05157200928273532,0.11002234860279797
432,1456704193279261,0.06224535421459105,0.06281527506410758,0.10175758343874118
433,1456704193294256,0.06817248110513358,0.0754229127313658,0.09317739421768094
434,1456704193318257,0.07219219347122009,0.08575798194217814,0.08854394166962429
435,1456704193338545,0.07299900587031907,0.09139328067230557,0.09147512544522933
436,1456704193354260,0.06989496652735544,0.09141629788567412,0.10290516468444286
437,1456704193377788,0.06275663859446778,0.0861194238316413,0.12019808997189459
438,1456704193398514,0.05213184567856982,0.07646995417127092,0.13799284642900356
439,1456704193414298,0.039571740664318664,0.06385410578173628,0.15045343851245863
440,1456704193445305,0.027982700738560906,0.05031760980040337,0.1538930564596512
441,1456704193458300,0.021565794621673403,0.03913213055052131,0.14848594404416549
442,1456704193474936,0.025008589741506472,0.03518199545265558,0.13813045885088687
443,1456704193497571,0.04196626318461967,0.044498722612810244,0.12845482326448054
444,1456704193518804,0.07329616327143301,0.07250927936166254,0.12398520789694085
445,1456704193541800,0.11578515931593958,0.12135080844531529,0.12594304397665326
446,1456704193557804,0.16211615237440366,0.1875575176088512,0.1317679707152137
447,1456704193578807,0.20249378854907563,0.26171359702188035,0.13661339124769992
448,1456704193593812,0.2277144735695049,0.3307536606580582,0.13619328557816818
449,1456704193617938,0.23270163393781465,0.3820045324175459,0.1297583421202484
450,1456704193638930,0.21899352628625954,0.4071538245148162,0.12182300780384538
451,1456704193654931,0.1948773098918936,0.40482595985014475,0.12165404650644712
452,1456704193677324,0.1729980907982277,0.38146396471027194,0.14036379531544352
453,1456704193698904,0.1665880597111878,0.3504879314220515,0.18638540937274545
454,1456704193713833,0.18581218591370297,0.32939061517399254,0.26080262401101006
455,1456704193737002,0.23496770987808827,0.33471884991803263,0.35435842302846315
456,1456704193759002,0.3104988122442254,0.37606754704377987,0.4479193456286576
457,1456704193774346,0.40005107830636283,0.4512828279288353,0.5174030719966931
458,1456704193796855,0.4838312025557211,0.5451719884057099,0.542320166335871
459,1456704193820002,0.5396704501296924,0.6331212507540714,0.5145408049117342
460,1456704193834965,0.5510492321790496,0.6891753090752261,0.4424776377117708
461,1456704193856858,0.5142667672790926,0.6956120114676836,0.34767431967454016
462,1456704193878869,0.4402912466171364,0.6495013653362871,0.25538891918171636
463,1456704193893994,0.34989919155096644,0.5630501609525499,0.18455694788448002
464,1456704193917054,0.2649069249127823,0.458021977484618,0.1423442161223568
465,1456704193938996,0.20021911963007488,0.3573821140385178,0.12497987521440149
466,1456704193961962,0.16025212437533923,0.27791154957638614,0.12284339173433993
467,1456704193977392,0.14049323786611892,0.2263683614293005,0.1261929439260382
468,1456704193998609,0.13230197125891024,0.19987363545882522,0.12869244987636308
469,1456704194021685,0.12781777595052432,0.18939253940436515,0.12793164246107133
470,1456704194037400,0.12257324607425861,0.18426574173438953,0.12402233099972924
471,1456704194058408,0.11541513499153803,0.1759722759472018,0.11803223851620008
472,1456704194081919,0.1069689772682308,0.16014030961200096,0.11132324792586072
473,1456704194096921,0.09813772322495723,0.13668411510584663,0.10560535326476041
474,1456704194117921,0.0893801018159826,0.10861480809058115,0.10282773484401794
475,1456704194141922,0.08070785654879926,0.08037785629215348,0.10439939454499869
476,1456704194157923,0.07199506312872174,0.05638982877910991,0.11014887676255915
477,1456704194178932,0.06326124938840223,0.04001613946386539,0.11794783944233432
478,1456704194201994,0.05478414447754417,0.03294159514405147,0.12455066264539716
479,1456704194216988,0.04702291805922796,0.03486857887120724,0.12725087118774162
480,1456704194238986,0.04041056348617532,0.04359869492358741,0.1252246981486787
481,1456704194260951,0.03516050279555259,0.05560420288953845,0.11961279522576038
482,1456704194277457,0.03124057811526071,0.06704957394066924,0.11241234681480079
483,1456704194299967,0.028528433197118206,0.07496480073003695,0.10520174722852754
484,1456704194321983,0.02700456283916365,0.07812048143298377,0.09872823506863707
485,1456704194336972,0.02682514916477079,0.07722540217179874,0.0935109692032104
486,1456704194367516,0.02822809187508953,0.07432094648770184,0.09067747471487005
487,1456704194380991,0.031329695116448786,0.07159906153615668,0.09205909848763409
488,1456704194396992,0.0358951181285199,0.07018344603942178,0.09925533053174035
489,1456704194419992,0.041148241811609525,0.06949896828918874,0.11231308695055296
490,1456704194441993,0.04569547503145525,0.06762575899891231,0.12902427220960128
491,1456704194456995,0.04768686377780875,0.06258482654250659,0.14536282058722513
492,1456704194480006,0.04534812316034278,0.05404766879777723,0.15678725496463836
493,1456704194501300,0.03788719248856459,0.04473540599366553,0.15975231614598712
494,1456704194517014,0.026513207971109808,0.040851979991243306,0.15294908318297729
495,1456704194540017,0.01506235592822977,0.05116129067722286,0.13805194579088179
496,1456704194562017,0.009709124609048813,0.08464925270193825,0.1197602323713163
497,1456704194577528,0.017534626756088547,0.1471280188841944,0.10490662522442018
498,1456704194600037,0.04421312809503295,0.2376933869503039,0.10065842214815694
499,1456704194622039,0.09154885108256265,0.34650377009177447,0.11228654061488709
500,1456704194637042,0.15583601928219995,0.45543556028115917,0.1413298697904266
501,1456704194660040,0.22783654772853656,0.5422417972937681,0.18493635564458383
502,1456704194682057,0.29454602682791625,0.5871085849888704,0.23657893120381188
503,1456704194697058,0.34223884814207123,0.5791348379301872,0.28761200417142707
504,1456704194726297,0.3600735905582462,0.5201549465818625,0.32900271071052345
505,1456704194742061,0.3436523382255025,0.4243299490915866,0.3531598768878273
506,1456704194757099,0.2976360366932327,0.3136177861298356,0.3561937022501235
507,1456704194780074,0.23590888545055516,0.21105689580460366,0.3403569654067533
508,1456704194801348,0.17811895399396585,0.1346356502727527,0.31525472599818016
509,1456704194817086,0.14326721583595814,0.09372172856626151,0.2959874693540355
510,1456704194840088,0.14298352350494928,0.08846599059675048,0.2976461798877365
511,1456704194861130,0.17745664211011572,0.11155704908103234,0.32806699939124884
512,1456704194877876,0.2356012635011419,0.15146717020203845,0.3827615249031936
513,1456704194900881,0.2991984396994204,0.19629294928521843,0.4455913875256066
514,1456704194921883,0.3493494229081385,0.23698752006014084,0.4955988283214895
515,1456704194937887,0.3728065361652094,0.268688183738038,0.516367627422541
516,1456704194960623,0.3657640833516731,0.28977725780151203,0.5025523112853023
517,1456704194981924,0.3337580444685675,0.2998518425857031,0.46029780070247195
518,1456704195003656,0.28810158535337543,0.2984159471157621,0.40241137509251756
519,1456704195019657,0.24081774642100265,0.2852032014605904,0.34201613270529885
520,1456704195041643,0.20044361168631825,0.2615325145158082,0.2882344576167604
521,1456704195057650,0.1702426529024637,0.2312932881823746,0.24516490938824434
522,1456704195079342,0.14896465423131397,0.2005049037801531,0.2131715972879808
523,1456704195101295,0.1331689191128728,0.17543057223209907,0.19066849841939604
524,1456704195117049,0.11967023019851016,0.16020635712152814,0.17519437537310306
525,1456704195139050,0.10694525095624632,0.155341518159961,0.16378453484495142
526,1456704195161058,0.09515930427416322,0.157985119644537,0.15335908446150467
527,1456704195177812,0.08528919661922574,0.163706311728696,0.1415848406971984
528,1456704195206862,0.07811331378972804,0.16854123993248948,0.1279171501034556
529,1456704195222864,0.07361469837903775,0.17010854220835933,0.114072647927489
530,1456704195243860,0.07095278622057014,0.16757328308384645,0.10336496828425237
531,1456704195259865,0.06888344925773313,0.16111164077531176,0.09899118144237878
532,1456704195281916,0.06638664460636223,0.15159123405972674,0.10207368489361451
533,1456704195303237,0.06322437542719013,0.14067471742717844,0.11057661363874863
534,1456704195318919,0.0601601311742288,0.13102582719745445,0.11985002563410045
535,1456704195341919,0.058661332376574886,0.1260578669108146,0.1246567524811284
536,1456704195362921,0.06014633818659566,0.12887458181986777,0.12165762422667488
537,1456704195379426,0.06516759217092487,0.14066505373892124,0.11106475631798478
538,1456704195402933,0.07305589985533913,0.15941425530253295,0.09668144404353268
539,1456704195422934,0.08225747859826357,0.17989233189084614,0.0843941146904178
540,1456704195438934,0.0910826383546727,0.19531807707589938,0.07978692676718972
541,1456704195461936,0.09832661544656925,0.20011638862590017,0.08577112918701965
542,1456704195483415,0.10341669977179409,0.19242272551296496,0.10113601227913499
543,1456704195499541,0.10615632202632726,0.17499110424086844,0.12073449948703231
544,1456704195523343,0.10641346921135035,0.1539524976952599,0.13743193154328895
545,1456704195543628,0.10402954300663601,0.1359810532743516,0.1450295791337281
546,1456704195559346,0.0989238142347542,0.12527048688891754,0.140679136693568
547,1456704195582848,0.09119741462867355,0.12182673361357753,0.12555010812523681
548,1456704195603848,0.08116657136050327,0.12186272798830709,0.10370266241957979
549,1456704195619854,0.06943280307595362,0.12000552928788404,0.08023117620477181
550,1456704195643586,0.0570492246387806,0.11222883885235037,0.059823058711147924
551,1456704195663586,0.04565285733800969,0.09820486796267465,0.04614437955888657
552,1456704195679598,0.03738397797198075,0.08208897589009297,0.04181345225852456
553,1456704195703864,0.03455749204953744,0.07142015167370644,0.04854726504793578
554,1456704195723863,0.03919034860045991,0.07453757562881165,0.06713505166139981
555,1456704195739610,0.05251707616391026,0.09742906845983161,0.09703496268028002
556,1456704195762611,0.07462647388609828,0.14119935418949556,0.13567682539144094
557,1456704195783832,0.10435754791058516,0.20128726624812027,0.17795348154261628
558,1456704195799829,0.13950786870395115,0.26891032612779736,0.21660236381921177
559,1456704195823832,0.17722227696381404,0.33400909896151404,0.24388330118514362
560,1456704195843834,0.21429396045564567,0.38797947102928076,0.25412991790752554
561,1456704195859833,0.24720144798206184,0.42474924841414446,0.24596806562225573
562,1456704195883860,0.27210831859487306,0.4402693296827229,0.22308931739495813
563,1456704195903709,0.28552844667458327,0.4318505710659325,0.19347441915842745
564,1456704195919710,0.28621991270825026,0.3987428896660641,0.1678104824427212
565,1456704195942931,0.2777091639386541,0.344111900211918,0.15769460875450889
566,1456704195963713,0.26950229235929557,0.2771161909701586,0.17350453308155173
567,1456704195979723,0.2750131631673711,0.21305456897245112,0.22152764901575087
568,1456704196002853,0.30598535978962016,0.17018597045031728,0.30054367661437986
569,1456704196023852,0.3656081810233266,0.16371118234050563,0.39929203843186023
570,1456704196038733,0.44405971121563453,0.19938987967257357,0.4971475210816121
571,1456704196061850,0.5197982678714325,0.27000878489881525,0.5695607761395579
572,1456704196083201,0.5672812315925558,0.3569096486403748,0.5970095358974624
573,1456704196098979,0.5679282836393363,0.43641479355269663,0.573082620517497
574,1456704196121981,0.5186324186917788,0.48833541160820604,0.506874409310311
575,1456704196142985,0.4331786256591083,0.5025306021094137,0.41822797665797085
576,1456704196158983,0.33596266328611574,0.48079986752371945,0.32890546067849263
577,1456704196181993,0.25154206243897487,0.43412569817956637,0.2547144595896305
578,1456704196204998,0.19533444291983323,0.3772765373017814,0.2020233605922213
579,1456704196218999,0.16960284445639176,0.3232867973571919,0.1689869950645236
580,1456704196242001,0.1657430981931492,0.27983313184432007,0.14947167910043713
581,1456704196265004,0.17062759841601488,0.24839840859870146,0.13704277273808274
582,1456704196279549,0.17310789554797565,0.2258378700861754,0.12723022156643876
583,1456704196302523,0.1675585696526173,0.20722587375084206,0.11781882946470683
584,1456704196325524,0.15379509990812462,0.18876831710521383,0.10812543929139659
585,1456704196339552,0.13486821366440058,0.16974805354048197,0.098404302132889
586,1456704196362551,0.11473689951561736,0.1528113126803494,0.0897570797561436
587,1456704196385807,0.09694679093508142,0.14246163576783313,0.08409442389073189
588,1456704196399841,0.08430365424773152,0.14232928151048974,0.08360189349650957
589,1456704196421915,0.0788766960165135,0.15246787360747105,0.08971430740098967
590,1456704196445787,0.0817215639340015,0.16826191449052538,0.10210206463057926
591,1456704196466915,0.09229926376800447,0.18198742601395435,0.11822876245511754
592,1456704196482423,0.1081131598793271,0.1865495665467542,0.13380761587984075
593,1456704196504931,0.12507681845576768,0.17929969162173498,0.14417672016179278
594,1456704196526154,0.13861767792709054,0.16348308428313665,0.14625639678975744
595,1456704196542953,0.14503205147655812,0.14631864024189675,0.14037869021146707
596,1456704196564936,0.14255145836507235,0.13491309862148795,0.13104092991880742
597,1456704196586952,0.1318729784012562,0.13249490298163985,0.12578261367068874
598,1456704196601953,0.11612596104080164,0.1370758112596924,0.13214228793179073
599,1456704196624954,0.1002059562544249,0.14310132777618584,0.153822631058673
600,1456704196645958,0.0893904305169999,0.14490098406095792,0.18799777491805408
601,1456704196661967,0.0874803494200313,0.13974175133731506,0.22541137699548383
602,1456704196685354,0.09521465086789793,0.12869440757674078,0.2536102002234743
603,1456704196706355,0.10983991163737908,0.11514107567828401,0.26208801171803114
604,1456704196722357,0.12620668509246702,0.10233042530623661,0.2470601609357629
605,1456704196745359,0.13891405615510966,0.09172864827720091,0.21354275904425837
606,1456704196766361,0.14443165188646065,0.08301790845734242,0.17353361259160857
607,1456704196782368,0.14218161217653072,0.07536429023396264,0.1409940047694456
608,1456704196805376,0.13416876625427882,0.06884501199386478,0.12600138830601493
609,1456704196826684,0.12349225350147472,0.06500680713937686,0.130874818766646
610,1456704196842379,0.11260910653492517,0.06622705331842603,0.1500270025293252
611,1456704196865380,0.10234728883227484,0.07431297945391774,0.17336996726560439
612,1456704196886547,0.09221169807175088,0.08913352145751122,0.19132540442082369
613,1456704196902246,0.08162221067119942,0.10799843580962379,0.19886134469799255
614,1456704196924247,0.07103894076599065,0.12617338092572894,0.19681977154381514
615,1456704196948249,0.062095617712666654,0.1384352894086576,0.1903957632855198
616,1456704196962255,0.05669428889154861,0.14102316675473517,0.18587822162958859
617,1456704196984723,0.05574738343593605,0.13304840955252376,0.18721980921237313
618,1456704197006753,0.05840466521626389,0.11669000748023563,0.1939034115459871
619,1456704197022494,0.062259013586989466,0.0961656528981947,0.2010766125801504
620,1456704197044494,0.06447344926204114,0.07607092560156388,0.2019488781928253
621,1456704197066833,0.06325649444024078,0.05987576778083848,0.19124016905446553
622,1456704197082522,0.058868416635437806,0.049144670133407224,0.16782914053345238
623,1456704197104531,0.053543488113623916,0.0436317368813257,0.1352682608037099
624,1456704197128532,0.05030519577520331,0.042056757532731116,0.10015728941937867
625,1456704197142533,0.05129587104370833,0.04317147144803546,0.0695010259509429
626,1456704197164534,0.056539207067957176,0.04661469086151659,0.04843731946799429
627,1456704197187855,0.06382378026147195,0.05307839002499031,0.039168304494073866
628,1456704197201900,0.0697668601749743,0.06361126365986887,0.04109323804526876
629,1456704197223851,0.07144202014961751,0.07841316074933667,0.05159480750166204
630,1456704197247748,0.06766336132169432,0.09586507640327924,0.06693106999022334
631,1456704197261809,0.0593386589504989,0.11246835201454636,0.08302320516031259
632,1456704197293805,0.048956930304916796,0.123876139772012,0.09619692851389186
633,1456704197308806,0.039690409175451,0.12661844963711652,0.10394442152606012
634,1456704197321876,0.034524106511878476,0.11973495588601883,0.10559228610313721
635,1456704197343830,0.035558431917756844,0.10548512923472037,0.10254938726424845
636,1456704197368722,0.04349544506905672,0.08868421881816066,0.0978031925054104
637,1456704197382759,0.05734935586815036,0.07488371868015618,0.09468243873882844
638,1456704197403945,0.07448238158775426,0.06816389434033902,0.09536660124408462
639,1456704197427947,0.09104755065254423,0.06942649692472133,0.09978781285320565
640,1456704197441950,0.10278903301482616,0.07584811304202757,0.1053832658015603
641,1456704197463951,0.10600137427847682,0.0817847733704128,0.10785114732503583
642,1456704197488485,0.09841273358984465,0.08094158746225413,0.10273613971771559
643,1456704197502487,0.07981253032655516,0.06904327131635428,0.08730951103441814
644,1456704197524488,0.052273796980730675,0.04583343539713219,0.06196482852163145
645,1456704197548489,0.019838490114145464,0.015400938271920175,0.030439738735709047
