,timestamp,x,y,z
0,1456704184615859,0.0039024852509837948,0.003988710660111667,0.01080791560406385
1,1456704184637877,0.01028827034221044,0.007930616949683309,0.02619674951501721
2,1456704184661848,0.01667998797174816,0.011861561459195629,0.040429917970272636
3,1456704184676855,0.02318412649289958,0.01587366504271445,0.05219891686725737
4,1456704184697894,0.02999053672785268,0.02011489457554325,0.060253942510236275
5,1456704184722104,0.03717450493851567,0.0247209473770765,0.06372507508087948
6,1456704184736856,0.044458255281827286,0.029722940494998473,0.06255115527993359
7,1456704184758209,0.051127955888400696,0.0349620414752689,0.057780444222641524
8,1456704184797567,0.056217124834822774,0.040027773869202046,0.0514926237389511
9,1456704184798567,0.05886169860790847,0.04426305274188013,0.04624506498607643
10,1456704184819568,0.05859817227627649,0.046891716403962676,0.04419660408347804
11,1456704184841895,0.05546992294378516,0.04725632802052752,0.046284081120421726
12,1456704184859094,0.050009276415167545,0.04506900389394994,0.05187599224069161
13,1456704184879606,0.04320682472859997,0.04057227821435736,0.05910392745747563
14,1456704184915606,0.03643104857545178,0.03455288164279414,0.06568030240073335
15,1456704184939608,0.031164536748476978,0.02818661915463083,0.06975193863182698
16,1456704184940608,0.028543310514593568,0.022737908008238803,0.07040976985904142
17,1456704184960614,0.028900693920249194,0.01920858266206426,0.06775103942119184
18,1456704184976620,0.03159348882790868,0.018069068040862602,0.06261076022432437
19,1456704184999622,0.03524602675556255,0.019165347300942364,0.05614323405363347
20,1456704185020785,0.038314452901435266,0.021808437564953365,0.04941583402641634
21,1456704185036624,0.03972166400870622,0.02498655595854711,0.04314784796065655
22,1456704185059630,0.039301038817312936,0.02763132518964143,0.037675177896298345
23,1456704185080637,0.03787834829625002,0.028894194937892987,0.033112144974974944
24,1456704185096638,0.03697443158800738,0.028391003508226546,0.029559107406312762
25,1456704185119639,0.03827143816891956,0.026341862127311714,0.02719068964418802
26,1456704185141640,0.04306351019968396,0.023535439924817558,0.02618733898647227
27,1456704185156646,0.05186234190702167,0.021119273790093346,0.026604614851080226
28,1456704185179653,0.0642152873682142,0.02029034628971943,0.02828252698615847
29,1456704185200660,0.07873301644921253,0.021957254880569706,0.030827294459796328
30,1456704185222661,0.09333719727516397,0.026413780866516908,0.033660872192375575
31,1456704185239850,0.10573361513591123,0.03309666139643204,0.03614298498521456
32,1456704185260858,0.1140234921516273,0.040576329708983665,0.03776354040117079
33,1456704185282566,0.11723079924337543,0.04691335744174248,0.03834686001269943
34,1456704185299365,0.11547217020570423,0.050323023264915466,0.03814498776098299
35,1456704185320615,0.10965780952054535,0.04984547823360093,0.037714365737864367
36,1456704185342563,0.10094868265607075,0.0456712065150609,0.037607476194755594
37,1456704185361119,0.09039688759442221,0.03900359502876702,0.038074069580613545
38,1456704185380777,0.0789921883388158,0.03161557945905295,0.038997614545116244
39,1456704185402789,0.06793107793923912,0.02531655136238047,0.040132535235881533
40,1456704185419789,0.058787564771282594,0.021445257591040014,0.041463197300255154
41,1456704185440872,0.05346772268323583,0.02047284535915555,0.043381930482413594
42,1456704185463094,0.05397158458735136,0.021874515838596606,0.04651379193272077
43,1456704185487605,0.06188485652229534,0.024431730744020278,0.0512947497619043
44,1456704185500610,0.07751619719561727,0.026944527668860758,0.05758199297821819
45,1456704185522821,0.09894217912992447,0.02906153958067052,0.06452795340893404
46,1456704185539607,0.12162764928221291,0.03177784723063557,0.07079261523474817
47,1456704185562059,0.13926629365844204,0.03723806410980466,0.07502621747738346
48,1456704185583155,0.14589194629636526,0.047788027766531974,0.07644734674561733
49,1456704185599824,0.13845214034444195,0.06460403597588175,0.0752779598419402
50,1456704185621826,0.11850920527923466,0.08650988138444307,0.07283336048882426
51,1456704185642867,0.09204641444359316,0.10961871709140684,0.07121390169717416
52,1456704185659864,0.06736725644565007,0.12817926856822828,0.07269739494920355
53,1456704185688903,0.05203403650321992,0.1365188077263688,0.07897229791935015
54,1456704185702883,0.05013023919701935,0.13136582976795505,0.09034376194669028
55,1456704185719871,0.060891880817703976,0.1134285810519821,0.10515239759635607
56,1456704185741866,0.07920355208068443,0.08735376850752782,0.11982686895490238
57,1456704185770880,0.09775312029137266,0.060078983169099355,0.12992772822550488
58,1456704185779881,0.10994771944138934,0.03844975022658686,0.13201935537245704
59,1456704185801882,0.11232584969073127,0.027180918471791136,0.12551130151450932
60,1456704185822918,0.1054718946636655,0.027843565048247705,0.1133680880222847
61,1456704185839889,0.09326501908419363,0.03897855730111934,0.10112585768561591
62,1456704185862136,0.08108582551248275,0.05699482058255845,0.09458934331925412
63,1456704185882507,0.07385149605738608,0.07734441583364593,0.09724130963791563
64,1456704185899536,0.0745256338667217,0.09560236086243024,0.10851888360069512
65,1456704185921314,0.08342178680402562,0.10835164020778493,0.12383472851857431
66,1456704185942511,0.09837294060982671,0.11390008485502329,0.13660590518129226
67,1456704185959519,0.11564380224879671,0.11273168644644015,0.14158098352150772
68,1456704185981221,0.13127760553515652,0.10741949697665366,0.1377914724389924
69,1456704186003222,0.14243008339724295,0.10179590754550456,0.12930536425233088
70,1456704186019222,0.14822277487033286,0.09956576846933064,0.12310388437864636
71,1456704186049224,0.14977813622232472,0.10295984100642623,0.1251925164090139
72,1456704186062732,0.14935070594881994,0.11204855646900273,0.1371624295473628
73,1456704186079248,0.14880598008894327,0.12493491306745465,0.15509935005300793
74,1456704186101249,0.1480793139080262,0.1385865415503202,0.1713589178416839
75,1456704186122255,0.14449336351062309,0.1498499866533757,0.17820321839608055
76,1456704186139251,0.13361946235808617,0.15623542999803705,0.17144367423577708
77,1456704186161757,0.11166072915832155,0.1562819736183845,0.152436145938572
78,1456704186182263,0.07849558778053872,0.14960245050946852,0.12775617909197698
79,1456704186199265,0.04002834748278519,0.13687832748344392,0.10692496207541469
80,1456704186221266,0.008512189861899697,0.11997328459394939,0.09911541586040945
81,1456704186242268,0.0,0.10203419177353208,0.10989519896053163
82,1456704186259776,0.02901650261630852,0.08724691115687597,0.13907420320860428
83,1456704186281292,0.10183291810221051,0.08002697790876444,0.1805985620631799
84,1456704186302293,0.21099600897812898,0.0837523727714911,0.22484061012290532
85,1456704186326295,0.3343217490918941,0.09943103368013255,0.262515675192731
86,1456704186341296,0.44059141687273784,0.12483560660252985,0.2883841339302267
87,1456704186362818,0.5013262875684501,0.15466012668415177,0.3027908375160336
88,1456704186379338,0.5041791333392697,0.18204573028452398,0.31041362755833224
89,1456704186401340,0.461087957155733,0.2011940425192607,0.31756907218944724
90,1456704186422346,0.4058349076159199,0.20994749615450997,0.3303345188985433
91,1456704186439341,0.3809037633163271,0.2108886745660098,0.35453666247452903
92,1456704186462094,0.4192293315503147,0.21019092046622176,0.39634262043970137
93,1456704186482752,0.5290158633471977,0.21471696986936795,0.4611604296823652
94,1456704186505761,0.6883675641235629,0.22878356386427282,0.5501811819487556
95,1456704186521555,0.8522839777195033,0.25208937887357064,0.656818790140806
96,1456704186544557,0.9692214452495006,0.2797060903717561,0.7664371458685972
97,1456704186566234,1.0,0.30411940465985704,0.8604668836504878
98,1456704186581866,0.9310339574890982,0.3183565856871631,0.9222831940289803
99,1456704186604865,0.7773134827054023,0.3186567232593522,0.9409381665800189
100,1456704186626206,0.5754763766350222,0.3054146813910575,0.9115342387895162
101,1456704186641868,0.3707527941642716,0.2821901020848177,0.8346115968876349
102,1456704186664678,0.20295555709667365,0.2536546201974164,0.7170113635499368
103,1456704186686228,0.0962570086209049,0.22373256407832806,0.5732280855321922
104,1456704186701231,0.055417183628454186,0.19476741099015007,0.42394084808173066
105,1456704186724233,0.06840547287905079,0.16777461147413758,0.2904331792163921
106,1456704186746011,0.11327045338409272,0.14328586426633974,0.18764398092758014
107,1456704186762021,0.166214948123817,0.12211538941286644,0.12013558101796905
108,1456704186784317,0.2081577330101571,0.1054838074269199,0.08308726876048803
109,1456704186805547,0.2283049120318665,0.09436943770628853,0.06701821215184112
110,1456704186821319,0.22466687793133897,0.08860920821513411,0.06308318614963494
111,1456704186844321,0.20234450513358304,0.08656722621172759,0.06623181044703857
112,1456704186865842,0.1706327658272073,0.08574955136152444,0.07534060808052463
113,1456704186881349,0.13977971246932944,0.08397672033336054,0.09117636784604884
114,1456704186904350,0.11793330710165899,0.08034399958142478,0.1138017402435444
115,1456704186925562,0.1087812590238945,0.07542362297201262,0.14080716570832505
116,1456704186941353,0.11061330047151968,0.07067293626444533,0.16709627779727954
117,1456704186964576,0.11740412297559752,0.06744874127888761,0.18627113962169078
118,1456704186986062,0.12165627188825436,0.06620865355354237,0.19303864703143772
119,1456704187002065,0.11771073056178628,0.06631387155496356,0.1855308919344399
120,1456704187024804,0.1039539231731313,0.06643001296436478,0.16628217586207197
121,1456704187045805,0.08308769876120846,0.06518719298216084,0.14117720429140174
122,1456704187061830,0.06074540654060058,0.06174236541824053,0.11683463824810593
123,1456704187084839,0.043394905377730976,0.05606633659494045,0.09785002957694351
124,1456704187106181,0.036412075974703195,0.0489232876952882,0.08535495188786496
125,1456704187121842,0.042772413454971334,0.04157979192238476,0.07745403023964635
126,1456704187144878,0.06239767962220207,0.03534884175555012,0.07097816434592798
127,1456704187165656,0.09202792007696169,0.031140394696388567,0.06341010043251188
128,1456704187182200,0.12561763412926513,0.029181443801801012,0.05405757978390218
129,1456704187204214,0.15546521644714179,0.028985501290448107,0.04421139684117675
130,1456704187226214,0.1741905223138385,0.029576123209998716,0.03654790970154941
131,1456704187241175,0.17719002728808986,0.029924174710300067,0.03414181566431554
132,1456704187264700,0.16472135264301474,0.029487792470205287,0.03933305001751442
133,1456704187285680,0.14272583119577756,0.028646464098934357,0.05266053126964514
134,1456704187303421,0.12188982489976703,0.02877629709855981,0.07219601839914856
135,1456704187324422,0.11495473390058489,0.03180011202753381,0.09367744760215793
136,1456704187345445,0.1327040466151197,0.03928911301630643,0.11165567688547513
137,1456704187361934,0.1794951132878446,0.0515102560540817,0.12143103238400021
138,1456704187384440,0.2498084306177613,0.06698443801682628,0.12106747337558353
139,1456704187413442,0.32772733013445215,0.0829294685102758,0.11254106271581754
140,1456704187421442,0.3907580537734289,0.09644049926315837,0.10132900675072148
141,1456704187444444,0.4175669109112045,0.10576157078859097,0.09442069254430464
142,1456704187466966,0.39680321576216554,0.11093676137071852,0.0975052938330563
143,1456704187480980,0.33281619677616747,0.11355556297181907,0.11256501980215318
144,1456704187505114,0.24508637410151843,0.11585234580812455,0.13702727300461642
145,1456704187527112,0.16135148646327757,0.11969016930803203,0.16500011421685182
146,1456704187541209,0.1077015037878303,0.12588164535523327,0.1901689719008978
147,1456704187565100,0.10011074960208927,0.1340334905409954,0.2090657924994879
148,1456704187586217,0.14051014895451816,0.14284081550201597,0.22308251424474476
149,1456704187601218,0.21795314746045735,0.15063873524399585,0.23807673316579275
150,1456704187624219,0.31332814800760533,0.15602453686796613,0.26154426258298935
151,1456704187646232,0.4052714955887071,0.15836203215499778,0.29848997906083413
152,1456704187663939,0.47536453328027745,0.15797140619438887,0.34778632804860254
153,1456704187685157,0.511579671303882,0.15592810500747106,0.4008832767571904
154,1456704187707158,0.509621108794376,0.1536014103166733,0.44404156210399554
155,1456704187728159,0.47234623987242935,0.15213544911756777,0.46346458115806316
156,1456704187745160,0.40793582034074916,0.15198306119337612,0.4506737706932787
157,1456704187766673,0.3275594677064972,0.1525619880472238,0.4052871245292133
158,1456704187788179,0.24300417768045443,0.1521981404342922,0.3344822314397291
159,1456704187805180,0.16462097587275415,0.1485620575420407,0.2505167690200597
160,1456704187827183,0.09999181629027601,0.13961028705642256,0.16776290871783095
161,1456704187847185,0.05349311343900783,0.12467506604493135,0.09969500237228916
162,1456704187864910,0.02651004861130641,0.10508679374817731,0.055976863950078525
163,1456704187886418,0.01788949464518625,0.08387505949683635,0.040291041388310085
164,1456704187907427,0.024419557307451517,0.06466051863960133,0.04971810916768026
165,1456704187924421,0.041404548150254294,0.05036208948032167,0.07592172578874576
166,1456704187946424,0.0634796968977714,0.04236710194353703,0.10769959624451138
167,1456704187967877,0.0856318404227779,0.04040888763561529,0.13412254431741416
168,1456704187984661,0.10413308781312258,0.04297658672637886,0.14743282942970812
169,1456704188006892,0.11701843000162071,0.0479386544864176,0.14489690318666407
170,1456704188027900,0.12398340965506831,0.05315342997018219,0.1290181447840845
171,1456704188044664,0.12592509461657084,0.056953781092840716,0.10608665788726054
172,1456704188067112,0.1244100681502301,0.05842567054738701,0.08371587958690695
173,1456704188087833,0.12112743745100316,0.05742063406304504,0.06831229805867294
174,1456704188104818,0.1172855412840319,0.05432564821248757,0.06326232532984212
175,1456704188126853,0.11311366249596153,0.049726722818276586,0.06828752086786494
176,1456704188147612,0.10781700256559511,0.04414942552754018,0.08007764579035637
177,1456704188171861,0.10016781288382201,0.03800331609767424,0.09390995645966506
178,1456704188186848,0.08946784218655769,0.03173843928534344,0.10556064607750057
179,1456704188208116,0.07628124779183366,0.02608366912243206,0.11266907576504633
180,1456704188224850,0.0624287639150827,0.022136799247811968,0.11500508388690765
181,1456704188246852,0.050195073006174894,0.02112212207799153,0.1136732833047226
182,1456704188268093,0.0412057300207412,0.023852076127696048,0.10982534058804531
183,1456704188285105,0.03566149239547546,0.030176279608282324,0.10367951887649492
184,1456704188307105,0.032427251674135356,0.038791946498544665,0.09447435052442683
185,1456704188328103,0.02996382017283608,0.04767038643689816,0.08145126341539922
186,1456704188345105,0.027581594115287492,0.055054826145302015,0.06530631468373888
187,1456704188367104,0.026287645648301765,0.06057934435986262,0.049200828613064636
188,1456704188390118,0.028691737682309718,0.0657711514321247,0.0386445335236215
189,1456704188411119,0.037917741153166255,0.07336213162656517,0.040154659681604254
190,1456704188427120,0.05597480314371782,0.08554249280104294,0.05911443540829969
191,1456704188449122,0.08230956227393296,0.10212492485814881,0.09751785296418965
192,1456704188464643,0.11319813288953724,0.11988308315560256,0.15235749154336403
193,1456704188486161,0.14235603640611624,0.13373201271622884,0.21531104326327316
194,1456704188509162,0.162750774694676,0.13923100832324076,0.2740885902534565
195,1456704188524183,0.1691158491928774,0.1349261177683386,0.3153788778603036
196,1456704188546165,0.16023701314693634,0.12309770514135426,0.3288313523242313
197,1456704188569721,0.14003047494151175,0.10858949569981052,0.3109472104823519
198,1456704188586204,0.11688754137488355,0.09667003845405164,0.26736557470870403
199,1456704188606206,0.10145609719437276,0.09126092568573953,0.21230373064940802
200,1456704188629207,0.10357378047488304,0.0942106650585721,0.16498473624348745
201,1456704188646208,0.12925128273361372,0.10539894579005414,0.14410881821109364
202,1456704188666728,0.17847307207539148,0.12310283491786873,0.16198160750572865
203,1456704188689249,0.24437871599669095,0.14429405219862235,0.21986259132884897
204,1456704188706285,0.31427599382773197,0.16494324552168782,0.3060923544879603
205,1456704188726251,0.3726598673064575,0.1806397084403276,0.3984702846708454
206,1456704188749253,0.40562876247058827,0.18771214623882562,0.4711470087371569
207,1456704188766810,0.40518184160755005,0.18452632500522745,0.5037546928484117
208,1456704188785299,0.3716828090346187,0.17212743113099033,0.4884529160337819
209,1456704188808300,0.3134861088061856,0.1535672449269758,0.43135784513131664
210,1456704188830298,0.24388358452190625,0.13223016431673493,0.34831442621296804
211,1456704188845297,0.1766749085112276,0.11037022832630196,0.2581615303802541
212,1456704188868835,0.12225202348367754,0.08889468786158031,0.17698530638701648
213,1456704188890340,0.08562992190703317,0.06829383498621676,0.11496588182843258
214,1456704188905345,0.06664417673377553,0.049673081305826344,0.07563896385401711
215,1456704188928343,0.06152814963822963,0.03494303950933161,0.05685313961993466
216,1456704188950348,0.06488001380376571,0.02606822778796556,0.05280966698860197
217,1456704188965863,0.0713753296743703,0.023984049088218305,0.05654824125409909
218,1456704188988421,0.07692450639489046,0.027903341692212563,0.062099668887579444
219,1456704189010391,0.07916879213456803,0.035412127100657095,0.0656572727300787
220,1456704189025392,0.07739667996492286,0.04332023686128013,0.06563376575092443
221,1456704189048424,0.07211830014074154,0.048864663415890054,0.06204236515606212
222,1456704189070909,0.06453713045175931,0.050683960806249324,0.05582410096836362
223,1456704189085425,0.05606336925319773,0.049107759312901546,0.04844212765085278
224,1456704189108450,0.047944396122190445,0.04568517832298021,0.04164459988955205
225,1456704189130423,0.04105842912460813,0.04225233831882475,0.03715973685268538
226,1456704189145424,0.03588940105055368,0.0400036346546274,0.03625037867011544
227,1456704189168944,0.032653813629431684,0.03898370720038651,0.03926685153658187
228,1456704189190667,0.031491176920237764,0.03822374948708776,0.045419999376569035
229,1456704189205659,0.03260265604708195,0.03643936352294031,0.05294667740192253
230,1456704189228687,0.036261296402901974,0.03289094060031405,0.05968476005783788
231,1456704189251475,0.042684670840057753,0.02789451201125229,0.0638462938288922
232,1456704189265911,0.051790280412890514,0.02269325127670096,0.06460816196474763
233,1456704189288669,0.06285549532787393,0.018814213825464842,0.06219567997056172
234,1456704189311773,0.07417692525996561,0.017328527515562374,0.05743156151781145
235,1456704189326774,0.08299676555791996,0.018431353027177858,0.05108377544330176
236,1456704189348436,0.08604778748702267,0.021536634568610286,0.043515617648524525
237,1456704189380730,0.08082667738264229,0.025805155238427732,0.03495615949629119
238,1456704189386017,0.06720383606028733,0.030801347337434056,0.026262150976840926
239,1456704189409067,0.04860678373334393,0.03688009922405364,0.01966200932519574
240,1456704189431738,0.03205993132634343,0.045014035179230714,0.01893120467241917
241,1456704189445734,0.026722311733063133,0.05607549523819087,0.02872152818338378
242,1456704189468749,0.04100858292702215,0.06993006966292853,0.05314438572886135
243,1456704189490967,0.07890548420041346,0.084876705389709,0.09403932362726675
244,1456704189507064,0.1367689045002836,0.097865478156886,0.14957649227896247
245,1456704189528968,0.20240083964806058,0.10554916302899625,0.21384347373923698
246,1456704189551971,0.2578984276195641,0.10574735816377673,0.27774430728902966
247,1456704189568165,0.28621978250569835,0.09862033338394316,0.33098269078758485
248,1456704189589062,0.2791088709503418,0.08697766898417163,0.3644776920008061
249,1456704189611028,0.24243063352179925,0.07559736590279502,0.3726049638198439
250,1456704189628067,0.19560410497171804,0.06988993796780779,0.35503418111047863
251,1456704189649063,0.1647314415774354,0.07443726116433666,0.31802577017256306
252,1456704189671761,0.1723367466576582,0.09181546388951255,0.2744678286667781
253,1456704189687241,0.22821187151678848,0.12185680850204726,0.2413760843490258
254,1456704189708467,0.3251847665344073,0.16138345015441213,0.2344089304899193
255,1456704189730246,0.44148688794940794,0.20451379042134854,0.2612573901619534
256,1456704189747247,0.5486222142488165,0.24369491547827793,0.3175280770181696
257,1456704189768539,0.6211639922026091,0.2714784297697705,0.38785661139344685
258,1456704189791843,0.644230945118197,0.2826864302279011,0.4517823059313843
259,1456704189807551,0.6161641088411193,0.2760965264149134,0.49098605790715255
260,1456704189828849,0.5466406568917181,0.25461899498349566,0.49434027403547276
261,1456704189851559,0.4521287970492597,0.22373483149687234,0.45964399800190214
262,1456704189866848,0.3507561260947094,0.18924728215388023,0.39309206031549776
263,1456704189889110,0.2580262965670309,0.15579620250762913,0.3074920264072505
264,1456704189912102,0.1841101088458315,0.1266285300602444,0.21921987866986065
265,1456704189927858,0.132994389640212,0.10396138063851768,0.14396345961507495
266,1456704189948859,0.10337612097121816,0.08909291976393009,0.09237787993217365
267,1456704189971887,0.09063536461031972,0.08205085661669849,0.06737783384654876
268,1456704189993894,0.08890014113944429,0.08118154899366638,0.06421944073697337
269,1456704190009012,0.09249704326881061,0.0832473794927305,0.07326218332673902
270,1456704190030896,0.09669570467008314,0.084323508442154,0.08411935515810162
271,1456704190053900,0.09809027326513901,0.08123681199658925,0.0893679168116748
272,1456704190076635,0.09493126177831478,0.07283899570721843,0.0863730561969822
273,1456704190091634,0.08732368842720548,0.06042704312932942,0.07687584473220292
274,1456704190113550,0.07692833353719587,0.04710451400909678,0.0650692847104526
275,1456704190128549,0.06606212671197667,0.036437919614729766,0.05529136216895128
276,1456704190151345,0.05665016848477655,0.03104564432284884,0.050213375836293477
277,1456704190173563,0.049669786585113854,0.03168067366105985,0.04998807670283419
278,1456704190188078,0.0453172777477655,0.037079691226594554,0.05251626951827974
279,1456704190211113,0.043572411919718404,0.044544325887853314,0.05467487466700316
280,1456704190233073,0.04463186992011165,0.05099881626002871,0.053948989745151554
281,1456704190248074,0.04887453229552497,0.05412479954587858,0.04965860357057151
282,1456704190271586,0.05637985738418948,0.053108616992344766,0.04315015707284545
283,1456704190293091,0.06633535648775514,0.04866369327265635,0.03689475071714327
284,1456704190308092,0.07677158121433451,0.042377231668005604,0.033032283033276565
285,1456704190331093,0.08488425427299832,0.03585198240703691,0.03215994059255894
286,1456704190355094,0.0879015978814864,0.030208498970854418,0.03299262101929084
287,1456704190368985,0.08426938739203509,0.0261912223535002,0.03307908551815634
288,1456704190392080,0.07486375016371283,0.02464448266200596,0.030265286541884904
289,1456704190412998,0.06380153154785952,0.0268328079393587,0.024244821236384217
290,1456704190428998,0.05819913891985685,0.03416323704415512,0.01746179368585376
291,1456704190451006,0.06630745903777165,0.04728807269591739,0.01486217898955674
292,1456704190474034,0.09414540277529845,0.06507130329954974,0.022416861971149483
293,1456704190490007,0.14183369732825535,0.08415226832887168,0.04481598458886039
294,1456704190512009,0.20156565054346706,0.09963828638000516,0.08315404893941379
295,1456704190534071,0.2588529166320307,0.10688148913098315,0.13363314575595914
296,1456704190550012,0.2972298598465344,0.10362747551794016,0.18807207211958485
297,1456704190571809,0.3046714324310904,0.09142401873179798,0.23624859966086992
298,1456704190593817,0.2787972870369409,0.07537828356810826,0.2691681642645552
299,1456704190610818,0.22842564297944437,0.06220163153039033,0.281885950257551
300,1456704190631819,0.17093968327690334,0.057497555418195026,0.2749181409099468
301,1456704190654071,0.12684733688848412,0.06369179519276953,0.2542284623013877
302,1456704190670616,0.11366582696470512,0.07956632008938856,0.230323394819783
303,1456704190691725,0.14095289686870446,0.1014091986130509,0.21657865529428189
304,1456704190713411,0.20771739442898599,0.12496059750243695,0.22627130880684748
305,1456704190730413,0.30282051916445907,0.14705647776141187,0.26819424626773686
306,1456704190758421,0.40811987133833,0.16624809036684537,0.3422666198795307
307,1456704190774014,0.5031796523594648,0.18244329842769358,0.43768726060479
308,1456704190790939,0.5699841905409807,0.19617999231498576,0.5353655379156954
309,1456704190811940,0.5965491620423193,0.2080209023260725,0.6138035398489904
310,1456704190841718,0.5790564299344895,0.21802705673696524,0.6554069824112693
311,1456704190850713,0.5223448160185368,0.2251560242654491,0.650496174294597
312,1456704190871766,0.43842356260880216,0.2269698281429724,0.5985783463564345
313,1456704190893711,0.3429974799893677,0.22036950971251035,0.5079436528632363
314,1456704190910452,0.2509862723604444,0.20340205458586055,0.394066837706576
315,1456704190931675,0.1728354401292971,0.17702512554676453,0.27641118555042854
316,1456704190953784,0.11310907847458426,0.1454143190322383,0.17377601117002725
317,1456704190970783,0.07146037487936532,0.11443059817784985,0.09957259819613297
318,1456704190991774,0.04476855946012577,0.08919779496157529,0.05879580383670561
319,1456704191022017,0.029084269301674886,0.07217818251490768,0.04773276437845385
320,1456704191030785,0.020805260530096327,0.06262610686177385,0.056342526468529504
321,1456704191052021,0.017214704036520218,0.05749408196159727,0.07228893414246408
322,1456704191073705,0.016665319922329377,0.05318993771730658,0.0850612363762956
323,1456704191090206,0.018520042643488013,0.04724083673521597,0.08871336991941796
324,1456704191112207,0.02282886926282867,0.039094293098703235,0.08249832247955388
325,1456704191134209,0.029765525930677807,0.029881081313321553,0.06962929744079242
326,1456704191149211,0.039006505701780485,0.02153059137378001,0.0550478575047148
327,1456704191172046,0.049360642919073605,0.015805993653429006,0.04322912125313399
328,1456704191193847,0.05890436396439485,0.013650152024416065,0.03678247092215663
329,1456704191216852,0.06562334763387226,0.014960266600708273,0.036099133442101757
330,1456704191231567,0.06826470593254245,0.018736057402756974,0.039830722699692504
331,1456704191253852,0.06698512783595187,0.0235028357071465,0.04578097970519933
332,1456704191276398,0.06348591777501396,0.027895061795399557,0.05182924632395485
333,1456704191291411,0.060506539223690085,0.03120137886869766,0.056593629069321
334,1456704191313408,0.06073576115599578,0.033584344299389064,0.059627425811632113
335,1456704191336409,0.06547436171595403,0.03578521173834488,0.06111507289106796
336,1456704191351409,0.07366815884813563,0.03844893999780257,0.061285928738993675
337,1456704191373928,0.08193001543553693,0.041516506315118766,0.05992348860578769
338,1456704191389762,0.08575664596849181,0.04414071188095092,0.05629328683554527
339,1456704191412764,0.08156386788221032,0.04524578247867356,0.0495999827980051
340,1456704191434074,0.06877527704611698,0.044398135185670574,0.03982703862007738
341,1456704191449767,0.051171953878282044,0.04241136567636622,0.02858645646912367
342,1456704191472566,0.036942168116407485,0.04126284530148636,0.019494332508480258
343,1456704191501877,0.037147972901139095,0.04332532135215504,0.017691591614852245
344,1456704191516876,0.06259297520805139,0.05028086701950307,0.02846412510823064
345,1456704191532576,0.11951082240715293,0.06218868774998717,0.055352384328536605
346,1456704191553804,0.20523607638897778,0.07709170637577374,0.0984741921251736
347,1456704191576969,0.3058245490470863,0.0913839868972819,0.15383930779587543
348,1456704191592999,0.3977733890029156,0.10090632811462964,0.21410889612604203
349,1456704191613996,0.45476880483686277,0.10240315312672409,0.27060678696710877
350,1456704191636997,0.4577250233683812,0.09476815873653717,0.31573776053294184
351,1456704191652996,0.40376656474163247,0.07962161970028837,0.3447709147336837
352,1456704191673722,0.3094918915436871,0.06109798010214285,0.35644743515633426
353,1456704191696212,0.20651563387779723,0.045002624996987636,0.3527437042755598
354,1456704191712227,0.13105482923724257,0.03755913268485193,0.3385116540716848
355,1456704191733499,0.11177205450819605,0.04387700512504074,0.32107956933576637
356,1456704191757215,0.1603964677992804,0.06628031711482836,0.3089717854422374
357,1456704191773090,0.26834756164034823,0.10293633656105242,0.3091656124763885
358,1456704191794067,0.41028656655743007,0.14756464751760226,0.32388657899720963
359,1456704191817041,0.5528004633645891,0.19086291702677258,0.3490934783451027
360,1456704191832075,0.664494797016559,0.22346525702730977,0.37600467434809387
361,1456704191853049,0.7239025308767973,0.2391990685872485,0.3948288666428103
362,1456704191876851,0.7234460830441486,0.2369518188845919,0.39830168259155113
363,1456704191893059,0.6693756472089762,0.22019687097300433,0.3831796586433578
364,1456704191913062,0.5782911775748115,0.19477341276736443,0.34987339063423495
365,1456704191937127,0.47133858613806257,0.16654580205315234,0.3016490859085053
366,1456704191952063,0.3678951095071846,0.14015384330982536,0.24414443969206795
367,1456704191973854,0.2808772991510391,0.11878136183525623,0.1847099764945505
368,1456704191996370,0.21514900307278348,0.10412441405941743,0.13099759588221366
369,1456704192012370,0.16903238670592172,0.09613826319413614,0.08906408632484625
370,1456704192033668,0.13747617848598095,0.0929229048928687,0.06184192104644159
371,1456704192056378,0.1150403253380414,0.09127292087105202,0.048696652980710006
372,1456704192072987,0.09764717471535876,0.08790772574658207,0.046231507863889666
373,1456704192093878,0.08308300887063219,0.08082847903284997,0.049883835538532595
374,1456704192116880,0.07070551321102796,0.07006862185393999,0.05550318627789914
375,1456704192132887,0.060800133678707124,0.05741027253132988,0.06024023332811862
376,1456704192153886,0.0539131011765861,0.04526598316847638,0.06261822272771066
377,1456704192176899,0.05035601761513821,0.035438280861628445,0.06216721663839509
378,1456704192192979,0.04992212885103359,0.02845699378320269,0.05908066554310359
379,1456704192213980,0.05181844937608679,0.02371722588948319,0.05404641287793568
380,1456704192236984,0.05489551196156981,0.020136669576362634,0.04810909755120755
381,1456704192258882,0.05819157846217717,0.016861366965350674,0.04242600863037067
382,1456704192273399,0.06153285750112265,0.013683782259089098,0.03798051935293421
383,1456704192296618,0.06574851788628776,0.01108330744773719,0.03541697853846016
384,1456704192312620,0.07221653269545347,0.0099619947211899,0.03503820462345346
385,1456704192333956,0.08184998714953835,0.011201821655083663,0.03683154607295218
386,1456704192356629,0.09401326224328539,0.015191969323370092,0.0403803971741672
387,1456704192372644,0.10603370862039338,0.02149773471930893,0.04468144516258013
388,1456704192394973,0.11380391241340852,0.028834015283502934,0.04806022757331448
389,1456704192416971,0.11343375763350613,0.035433319997108276,0.04843366244791644
390,1456704192433102,0.10328372720440036,0.03974807478953216,0.04406686316672137
391,1456704192455047,0.08544639774835824,0.0412278605625685,0.03470285984102407
392,1456704192476767,0.06604152745578303,0.04078390632858629,0.022600249905135105
393,1456704192492775,0.05421712657360411,0.04063906796428564,0.012830676832122133
394,1456704192515776,0.06000217050461111,0.043546994567658946,0.012359981132549625
395,1456704192537041,0.09114502609431809,0.05165352356905219,0.02792128101870994
396,1456704192552778,0.14933712857081202,0.0654095977836341,0.06325756168674676
397,1456704192575304,0.22704287856171124,0.08294992210256996,0.11674710469625238
398,1456704192595810,0.3069759180841033,0.10027802488686327,0.18056752286557984
399,1456704192611966,0.3660406132295591,0.11238862598068274,0.24220902478980644
400,1456704192635813,0.3836675401319729,0.11507703845885567,0.28820435941245587
401,1456704192657032,0.3515257750244234,0.10678640327374797,0.30874861780314805
402,1456704192673071,0.2796069572815076,0.08969035876577872,0.3012515660235009
403,1456704192695335,0.1946999509676811,0.06945869599177097,0.2713863845840305
404,1456704192716664,0.13117697562072975,0.05371024348995246,0.231509624945569
405,1456704192738628,0.11812112239058994,0.04970619769593248,0.19731617145839678
406,1456704192755339,0.16843006142139974,0.06208479040135812,0.18360741531581729
407,1456704192775850,0.2742122411270029,0.09133208146149352,0.19977341519661623
408,1456704192798947,0.4099034784315124,0.13338970045438434,0.2460561121102005
409,1456704192815964,0.5414140635853221,0.1805286981765286,0.31247758166920325
410,1456704192836964,0.6373020889833373,0.2234121261940864,0.3818763867509424
411,1456704192858959,0.6775908991476729,0.2539036891937377,0.4362089126118366
412,1456704192875861,0.657633718508444,0.267575209345178,0.46286499070190573
413,1456704192896309,0.5869066511949846,0.2646242952264501,0.4577127527396965
414,1456704192918525,0.4842302785393375,0.24874315488330279,0.42420898711752303
415,1456704192935313,0.3714926647919105,0.22490158264514912,0.37053392743933083
416,1456704192956626,0.2678402431995326,0.19757259853662365,0.3068723546509045
417,1456704192980337,0.1857539348061607,0.17008254899264433,0.24335900739218236
418,1456704192995336,0.1297357913239554,0.1446266052639056,0.18824443987526251
419,1456704193016555,0.09755818589046016,0.12230091867660925,0.14629466547589856
420,1456704193038551,0.08310745322789255,0.10308980881179008,0.11809126793843576
421,1456704193055339,0.07929879630872719,0.0861148313264877,0.10072308096975774
422,1456704193076945,0.07994609183576672,0.07024644299016278,0.08960640717339134
423,1456704193098487,0.08048142480617398,0.05482082669834346,0.08056128700131025
424,1456704193115354,0.07808397022064964,0.04007796791246932,0.07119821086203541
425,1456704193136584,0.07168430929721657,0.027078684937409916,0.061126816186006815
426,1456704193158643,0.061857462466049014,0.017156548464538443,0.05119037959025916
427,1456704193174945,0.050400814944001296,0.01123436769908999,0.04241430005791903
428,1456704193196388,0.039587623312492215,0.009387143923614276,0.035347847914242427
429,1456704193218603,0.03138551162387632,0.010838201707622537,0.03005983235144449
430,1456704193234391,0.02697195499108981,0.014312645880833788,0.02656061279621855
431,1456704193256399,0.0266447544176771,0.018524307682476503,0.025188624207019488
432,1456704193279261,0.029977868501125698,0.02256884560746699,0.02661923703540919
433,1456704193294256,0.03601943116498135,0.02607038928006613,0.031467217072595116
434,1456704193318257,0.04343127982388444,0.02904324703368817,0.039712565012096065
435,1456704193338545,0.05057764484676668,0.031574785640579785,0.050260210655160946
436,1456704193354260,0.055640221569818564,0.03354431619900892,0.06087869304049406
437,1456704193377788,0.05690241464478067,0.034566207088295206,0.06863084431790255
438,1456704193398514,0.053346293753870996,0.034192939230861655,0.07075867831683284
439,1456704193414298,0.045522035584312864,0.032269218882102,0.06581724853498695
440,1456704193445305,0.036326900851803526,0.029279010372626393,0.05467827216960143
441,1456704193458300,0.031120242700139626,0.02652480342971634,0.04093332301567913
442,1456704193474936,0.036718908264451774,0.025972829204516868,0.030340789484531613
443,1456704193497571,0.05923697106292076,0.02965957812853255,0.029293234039190093
444,1456704193518804,0.10125825806570336,0.03876147429026303,0.04269474404266079
445,1456704193541800,0.1592960558094298,0.05270263568877001,0.07195746130452571
446,1456704193557804,0.22280285145140608,0.06882397516293293,0.11392711054030064
447,1456704193578807,0.2759328661031382,0.08300515115359569,0.1613259255460579
448,1456704193593812,0.30244879746708364,0.09118928393322207,0.2047287012024971
449,1456704193617938,0.29249284432018985,0.09119047655140151,0.23538777374608297
450,1456704193638930,0.2482357115768974,0.08386167921618959,0.24784417788649948
451,1456704193654931,0.18517722808203865,0.07298165210337128,0.24148193819374336
452,1456704193677324,0.1277831619748984,0.0639499681368135,0.220794038563925
453,1456704193698904,0.10105771530243088,0.062015039246070214,0.1946054230991613
454,1456704193713833,0.12159592731310824,0.07083062949658332,0.17443964914583307
455,1456704193737002,0.1916672805708538,0.09167558455442454,0.17182246062895057
456,1456704193759002,0.29842000873422786,0.1231848649196448,0.1944380438455803
457,1456704193774346,0.4182577890799612,0.16139344483488988,0.24218887314896412
458,1456704193796855,0.5244691174923627,0.2002141820087424,0.3054307957421065
459,1456704193820002,0.5950152111837559,0.23263608098381608,0.3673152177911064
460,1456704193834965,0.6177694844412016,0.2525737618760394,0.40982706997941465
461,1456704193856858,0.5921364728272764,0.256653487774456,0.42044266707228034
462,1456704193878869,0.5274498508522353,0.24498111045562748,0.395873424954104
463,1456704193893994,0.43917702060467867,0.22055051708203424,0.3416963061999944
464,1456704193917054,0.34424677793735675,0.18793101130702236,0.2693854429912533
465,1456704193938996,0.2569298998504556,0.15218415230237498,0.192816356664785
466,1456704193961962,0.18631332738019,0.11830374686777043,0.1251120122111319
467,1456704193977392,0.13570199211070152,0.09071759875473345,0.07585987287486586
468,1456704193998609,0.10365325976017951,0.07244408035365092,0.0490212695474123
469,1456704194021685,0.08589489846719117,0.06416595565908809,0.04230680147705201
470,1456704194037400,0.07724287254107312,0.06388259087269246,0.0485140532817057
471,1456704194058408,0.07294971932675222,0.06754078216224538,0.05846609689176301
472,1456704194081919,0.06941575639613588,0.0704764080709369,0.06439557579292693
473,1456704194096921,0.06448789717832684,0.06907120814599238,0.062379994744620464
474,1456704194117921,0.0575382598939054,0.06193324135825516,0.05291892683731512
475,1456704194141922,0.049319442255914996,0.05015774346767883,0.03970535380524525
476,1456704194157923,0.04149012813125492,0.03666111690393325,0.027464767363585094
477,1456704194178932,0.03583688388776464,0.024945937115430274,0.019931088950261005
478,1456704194201994,0.03347293065264924,0.017801930198953594,0.018664538298114267
479,1456704194216988,0.03441078828480535,0.016394330395778735,0.02289572598205189
480,1456704194238986,0.037743416580863935,0.02000667432781802,0.03019605691650753
481,1456704194260951,0.04232651009005477,0.026467055528095824,0.03759129303562898
482,1456704194277457,0.047555074596172774,0.033066904710364414,0.04270124717605864
483,1456704194299967,0.05375713677912574,0.037615054172906275,0.04454163751869109
484,1456704194321983,0.06194518873628125,0.03919842871702706,0.0437410820582794
485,1456704194336972,0.07304840197070861,0.03832731747995303,0.04210759540199907
486,1456704194367516,0.08703436612495266,0.03644285452948691,0.041703609104692604
487,1456704194380991,0.10234105763092421,0.035094749889402484,0.04380089243974521
488,1456704194396992,0.11586522171736384,0.03523539100009118,0.04819154514945197
489,1456704194419992,0.12359034461869021,0.03695530974460621,0.05321786630410694
490,1456704194441993,0.12182090941295419,0.03971771358993921,0.05654435475314244
491,1456704194456995,0.10881504070249738,0.042890358521085976,0.05630878169965568
492,1456704194480006,0.08635834694583534,0.04624430238571091,0.05210739381135145
493,1456704194501300,0.06064187549623873,0.05015732223309145,0.04539502054456512
494,1456704194517014,0.04186030941527905,0.055458885322207364,0.03918654754627301
495,1456704194540017,0.04224648399688621,0.0630103207487288,0.03721351609884658
496,1456704194562017,0.07267465814119742,0.07315335357875334,0.042811112479792884
497,1456704194577528,0.1384337539281219,0.08520293174470105,0.057835043563606414
498,1456704194600037,0.2353809614767039,0.0972868548253836,0.08190867732944652
499,1456704194622039,0.34832523997724046,0.10683729201499459,0.11225259207725188
500,1456704194637042,0.453468489529576,0.11165794196210026,0.14418335199482585
501,1456704194660040,0.5252421094758968,0.11093321448398359,0.172143692883235
502,1456704194682057,0.5452538501838919,0.10544801325401514,0.19099050558633876
503,1456704194697058,0.5092219367028008,0.09692782267075897,0.19723827968370441
504,1456704194726297,0.4285443303239743,0.08720867722214694,0.1899711170619354
505,1456704194742061,0.32607267842529325,0.07806306965767784,0.17125989114590665
506,1456704194757099,0.22839030867256943,0.07181871074687664,0.14614344529501685
507,1456704194780074,0.15783670278292983,0.07210050438674052,0.12227141565146614
508,1456704194801348,0.12693165578400162,0.08380739213455111,0.10904302254430706
509,1456704194817086,0.13653324674010164,0.11190720618612467,0.11586694192273991
510,1456704194840088,0.1775449598458629,0.15935174866126378,0.14939571796220436
511,1456704194861130,0.23488295846706547,0.22487746685607685,0.21028616477516018
512,1456704194877876,0.2921488387645628,0.30158120628219137,0.2909208544571638
513,1456704194900881,0.3357243875741267,0.3771718655489407,0.3759315431620508
514,1456704194921883,0.35740229847197724,0.43656707938060374,0.4464450508423992
515,1456704194937887,0.3552327298273962,0.4665192462503232,0.4866784159756286
516,1456704194960623,0.3328358190424596,0.4603936443012375,0.48942785871560096
517,1456704194981924,0.297560882939355,0.4204796725462898,0.45734638536628996
518,1456704195003656,0.2578486256676974,0.3565070100564466,0.3999097458510709
519,1456704195019657,0.2205666942181238,0.2815432378754048,0.32889391711920496
520,1456704195041643,0.18943988193350533,0.20786376352496796,0.2552789535030339
521,1456704195057650,0.16511732478779653,0.14457869581524388,0.18822939509337994
522,1456704195079342,0.14635972955504498,0.0970152421634385,0.13489608570055592
523,1456704195101295,0.13141348479737816,0.06691724994898914,0.09981151989060112
524,1456704195117049,0.11898623357414433,0.05281804423387538,0.08388158929026482
525,1456704195139050,0.10864333891401859,0.05059098664731108,0.08389941065240289
526,1456704195161058,0.10060766223854645,0.05443883926356775,0.0933948910190621
527,1456704195177812,0.09512463495612798,0.05839290448518022,0.10477262873281552
528,1456704195206862,0.09182395491924902,0.058004245588592504,0.11182020225737042
529,1456704195222864,0.0895598022656665,0.05158952179230118,0.11143016105026535
530,1456704195243860,0.0868699730423562,0.04043310150730291,0.10391182091429627
531,1456704195259865,0.08272552598753974,0.02784444071010776,0.09208417941531814
532,1456704195281916,0.07705971493452808,0.01758700564394193,0.07979996874771125
533,1456704195303237,0.07079751334829398,0.012443347016527696,0.0705107827380661
534,1456704195318919,0.06549118588605503,0.013442279052651246,0.06624743810328416
535,1456704195341919,0.06283695900522039,0.01983830412940522,0.06718699840007741
536,1456704195362921,0.06422843467861705,0.029619757495769714,0.07182512325404206
537,1456704195379426,0.07035235418956581,0.04023753647787198,0.07765576327000986
538,1456704195402933,0.08085970247580267,0.04931734643204261,0.08215209175834405
539,1456704195422934,0.09424469659486123,0.0552139163031998,0.08371683229700211
540,1456704195438934,0.10804796716495345,0.05731444083522779,0.08223103393303059
541,1456704195461936,0.11938421711160986,0.05603723371513708,0.07899161942322577
542,1456704195483415,0.125686614469777,0.05255412121618745,0.07608813775516446
543,1456704195499541,0.12547077516894006,0.04835173526419959,0.07545741583865455
544,1456704195523343,0.11885071434612368,0.044759490631224974,0.07795401464327807
545,1456704195543628,0.10755945962093337,0.04253686242048764,0.08280530131908143
546,1456704195559346,0.09438138167819674,0.04162769971804405,0.08772062159367729
547,1456704195582848,0.08215356879465718,0.04123157425674214,0.08967625741972315
548,1456704195603848,0.07273765426500699,0.040257288850367196,0.0861135484252317
549,1456704195619854,0.06645527094537734,0.03798098377850312,0.07611794906784901
550,1456704195643586,0.062326849299365855,0.034545181044015875,0.061172406625045674
551,1456704195663586,0.05909282644752218,0.031018174243860254,0.04525463638702423
552,1456704195679598,0.05656515449173565,0.029011924809205742,0.03422842410440948
553,1456704195703864,0.05655047275624295,0.03006135985178528,0.03456438735689907
554,1456704195723863,0.06261552487662099,0.03497951143446943,0.051498659670158924
555,1456704195739610,0.07844760577031955,0.043358857195930904,0.0869663761259416
556,1456704195762611,0.10537881664290076,0.05341439406161331,0.13801537313581286
557,1456704195783832,0.1403798218009973,0.06235887762516614,0.19660307835238708
558,1456704195799829,0.17594596389855796,0.06730356208425267,0.2513445293910206
559,1456704195823832,0.2024872896427185,0.0663479541576097,0.2909004430005894
560,1456704195843834,0.21235899220322832,0.0593384492619043,0.30772705783241455
561,1456704195859833,0.20343870225403748,0.04794337662135726,0.30049158753819755
562,1456704195883860,0.18021937079353517,0.035107668081395406,0.27399911793915893
563,1456704195903709,0.15192008312652291,0.02428108868744215,0.23683324569649683
564,1456704195919710,0.12896971695146175,0.01880227465699987,0.19826700737189223
565,1456704195942931,0.11989906410548123,0.021522609043578073,0.16627402531551203
566,1456704195963713,0.12983095100154948,0.03447037653175206,0.1472853400715555
567,1456704195979723,0.1603661884039235,0.05834266708932995,0.14667511172572037
568,1456704196002853,0.20991981350625058,0.09188698857815555,0.1683971225440739
569,1456704196023852,0.2738370771821704,0.13156670580836774,0.21323804304459668
570,1456704196038733,0.3444034038771823,0.17194267139561475,0.27672785263934135
571,1456704196061850,0.41137942705108343,0.20682353450279917,0.34847949490047675
572,1456704196083201,0.46349979936250657,0.23078740134664316,0.41412769868750393
573,1456704196098979,0.4907136286834276,0.24054231810917798,0.4594580133502878
574,1456704196121981,0.4864933970747469,0.23567474061008795,0.47474941628092115
575,1456704196142985,0.44957696599935565,0.21845480443765186,0.45715527615194707
576,1456704196158983,0.3846965941539848,0.19273755320442854,0.4104828298934264
577,1456704196181993,0.30196456866541416,0.1626086464348476,0.34341380178148917
578,1456704196204998,0.21480219071490794,0.13159510145886266,0.26733857712446396
579,1456704196218999,0.13678226937299298,0.10263238151166865,0.19405530350907552
580,1456704196242001,0.07834909420136844,0.07825267844600552,0.13329674347530446
581,1456704196265004,0.0445962424600732,0.060467355654449086,0.09066068426145668
582,1456704196279549,0.034783558802273504,0.050387496627240985,0.06685761170066204
583,1456704196302523,0.04343599441274919,0.04797697808427695,0.05863837768330486
584,1456704196325524,0.0623706521968328,0.052162263397940105,0.06091774901351846
585,1456704196339552,0.08299772242544422,0.06119664139673941,0.0691384455750726
586,1456704196362551,0.09842043224921725,0.07306417665214442,0.08091041255612194
587,1456704196385807,0.10498935958528896,0.08580652113967947,0.09629346074062586
588,1456704196399841,0.10300330713018012,0.09777742719276812,0.11667853634106083
589,1456704196421915,0.09625572593548921,0.10785690974891823,0.14285634914373
590,1456704196445787,0.0903316168686851,0.11559249506447797,0.17325596485080655
591,1456704196466915,0.09011543301840398,0.12115287215874071,0.20330564014816394
592,1456704196482423,0.0975520900793489,0.12497400614893192,0.22641129039553473
593,1456704196504931,0.11073980600872525,0.12713726436990477,0.23632306744811424
594,1456704196526154,0.12478119992165382,0.12681637248511893,0.22991678523616707
595,1456704196542953,0.1339287421483265,0.12229599218866163,0.20900065395991127
596,1456704196564936,0.1339869948055324,0.11179400475733267,0.18004265741694306
597,1456704196586952,0.12391438294564493,0.09471179926087657,0.15172621250347976
598,1456704196601953,0.10602905575328499,0.07251535085637975,0.1314343146897956
599,1456704196624954,0.08490631000251636,0.04862551169881844,0.12238053880404613
600,1456704196645958,0.06559503439270851,0.027333325662547345,0.12275186479130011
601,1456704196661967,0.05192722350305207,0.01232837570944101,0.12712225838809751
602,1456704196685354,0.045489673847046164,0.005538676316814499,0.12922047564770076
603,1456704196706355,0.045475096189462966,0.006680385628050079,0.12457976220881327
604,1456704196722357,0.04930313398849819,0.01353421529445444,0.11191268451862867
605,1456704196745359,0.05370203448980952,0.022745172694457614,0.09293746761167565
606,1456704196766361,0.055877664454085374,0.030885912925723305,0.07120213216335405
607,1456704196782368,0.05441015906581083,0.0355055902797393,0.0507098035026973
608,1456704196805376,0.04960757148705687,0.03584471815912656,0.03485885278592647
609,1456704196826684,0.043233666919927784,0.032927214996102974,0.025800732412674894
610,1456704196842379,0.037739644939616776,0.028960706966564775,0.02413027583843775
611,1456704196865380,0.03527546790599804,0.026308269042189258,0.02885141851730209
612,1456704196886547,0.03682658182136514,0.026500007887312407,0.03762736427370936
613,1456704196902246,0.0418022874941813,0.029695286881930426,0.04732719431239804
614,1456704196924247,0.04824790812775833,0.03476655379645025,0.05482213839133329
615,1456704196948249,0.05360426261284951,0.03990503787453722,0.057876263342102656
616,1456704196962255,0.05571584131401931,0.0434435899530152,0.055842743645103846
617,1456704196984723,0.05367317170122856,0.0445146694012134,0.04983375581591856
618,1456704197006753,0.04810504173961875,0.04326133270071904,0.042214707829706245
619,1456704197022494,0.04076921119945707,0.04057236625072016,0.03561965626005115
620,1456704197044494,0.033676438958728336,0.03757284487667475,0.03193470484883865
621,1456704197066833,0.02825946390660926,0.03518409680768768,0.03167617518897097
622,1456704197082522,0.025019517322819946,0.03393071139795426,0.033965220508927085
623,1456704197104531,0.023716865135364605,0.0339691229192087,0.0370380391898004
624,1456704197128532,0.0238349277321051,0.03521319899013405,0.039042524658421014
625,1456704197142533,0.024979333706437738,0.037456339076994506,0.038793194585420174
626,1456704197164534,0.027043579603587244,0.040447517043168985,0.036196816319211046
627,1456704197187855,0.03016830495557445,0.04390393934440921,0.032215836908020025
628,1456704197201900,0.034582174178399636,0.04744571218325734,0.028435963385170043
629,1456704197223851,0.040372848784479165,0.05048026857199838,0.026437519528505347
630,1456704197247748,0.04722718931158275,0.052158258366297644,0.02719408953912127
631,1456704197261809,0.05424294492693311,0.05155188259673443,0.030680899711464458
632,1456704197293805,0.05997292851191784,0.0480628566411065,0.035819844225203394
633,1456704197308806,0.06282756581630726,0.04184563185009542,0.04082098412335791
634,1456704197321876,0.06179743564375486,0.033953648782976326,0.043862891346938916
635,1456704197343830,0.05720624462079207,0.026072099881951402,0.043871916850615804
636,1456704197368722,0.05101795920073995,0.01995676849150607,0.0410177475563644
637,1456704197382759,0.04630493188594242,0.01684687669584105,0.036615415889234684
638,1456704197403945,0.04590071656061642,0.017075424913549186,0.03244092556599164
639,1456704197427947,0.05079277300175193,0.01995744622980243,0.029816034112392347
640,1456704197441950,0.059101689412619854,0.023942567525801275,0.02894666713630209
641,1456704197463951,0.0663409266586834,0.027009494118691028,0.028850042543064565
642,1456704197488485,0.06708932515044594,0.027264547076955963,0.027896617457803634
643,1456704197502487,0.05745630139505428,0.02360854730803394,0.02468544435047255
644,1456704197524488,0.037160633577330404,0.016215306153906345,0.018804857398719614
645,1456704197548489,0.010080992931251585,0.006559398804237989,0.011089953557566208
