,timestamp,x,y,z,w
0,1456704184615859,0.007635022276386353,0.0063537055438349435,0.01312027990770988,0.007149769112793699
1,1456704184637877,0.014751183862007194,0.007028722261178563,0.01372910531935096,0.016855222258005016
2,1456704184661848,0.021363192054264315,0.007619733259510748,0.014089178679947374,0.025530247557846032
3,1456704184676855,0.026985952556890496,0.008056506786791378,0.014053980745005938,0.0323319133647967
4,1456704184697894,0.031123047351529542,0.008312895822780404,0.013681098661690077,0.03658678749076605
5,1456704184722104,0.0334665831689551,0.008404145776861287,0.013213202691331267,0.03803396711896173
6,1456704184736856,0.03414586959292524,0.008370923675465096,0.012978248262434827,0.0370591248135831
7,1456704184758209,0.033853561618318866,0.008262885488784526,0.013257030724386184,0.0347445063136535
8,1456704184797567,0.03370557984247631,0.008129800430451853,0.014175728353481704,0.03261582643106848
9,1456704184798567,0.03482008367560421,0.008019202540222106,0.015668021875314048,0.032107423494931446
10,1456704184819568,0.037768534809275306,0.007974914828348164,0.017518277904819256,0.03392883668768717
11,1456704184841895,0.042164514639230516,0.008031928903782296,0.01945281725723238,0.03762483988741031
12,1456704184859094,0.04663961124327728,0.008206813746595067,0.02121759618827506,0.04160219387607538
13,1456704184879606,0.0492974856645509,0.008487903723955538,0.022600496716172473,0.0437098536626309
14,1456704184915606,0.04849820530553986,0.008835163210567598,0.023418201857202905,0.04216768104808875
15,1456704184939608,0.04362908381239575,0.00920119529777048,0.023532113303567883,0.036413892820925
16,1456704184940608,0.03549583334280999,0.009574429343421264,0.02293373157354772,0.027448055150018177
17,1456704184960614,0.02615117926678014,0.010021504222576342,0.021864038879481764,0.01750181830284903
18,1456704184976620,0.018249690611209356,0.010686539894010324,0.020871056721559814,0.009214126716693777
19,1456704184999622,0.014204497568797405,0.011719306322178493,0.020721170004921227,0.004698023521811831
20,1456704185020785,0.015449238888852471,0.013155076793886661,0.022163998206023373,0.004859826120762785
21,1456704185036624,0.02202923417502237,0.014817914496733642,0.02564981992147727,0.009159184315016573
22,1456704185059630,0.0326307268866127,0.016324069534684932,0.031138062280101724,0.015832788632303845
23,1456704185080637,0.04502684950237816,0.017217806518247895,0.038085450556329635,0.022502420264259738
24,1456704185096638,0.05678679496071204,0.017204874543604243,0.04560448544101499,0.02700953169298733
25,1456704185119639,0.0660071170749471,0.01638910684467423,0.052709077449277185,0.02822633481347936
26,1456704185141640,0.07182712104252528,0.015388649823216555,0.058553045509429844,0.026528780710697964
27,1456704185156646,0.07458408350988718,0.01522937479380508,0.06260383786835547,0.023679436703763018
28,1456704185179653,0.07559858781447475,0.016992580694896762,0.06473682922175672,0.022100879504819093
29,1456704185200660,0.07668058320265674,0.02131421229782352,0.06524982670864164,0.02382176079782023
30,1456704185222661,0.0794706345162906,0.027943431618268268,0.06477970973519608,0.029567382829326617
31,1456704185239850,0.0847326973316474,0.03560330331915851,0.06409628255428329,0.03843155101267422
32,1456704185260858,0.09180106243901809,0.042305793053176555,0.06381054975892055,0.048324460423308825
33,1456704185282566,0.0985279146506542,0.04606346262241084,0.0641457317028887,0.057042302261386214
34,1456704185299365,0.10203276649430139,0.0457066041094065,0.06493682319674822,0.06348384489968194
35,1456704185320615,0.10012373601172467,0.04141501213893433,0.06584638329430062,0.06840173671355178
36,1456704185342563,0.09266862529854844,0.03470334164070374,0.06656377466712549,0.07422757764921933
37,1456704185361119,0.08199525899874645,0.02787873101277594,0.06677595129862657,0.0839265932752359
38,1456704185380777,0.07191166116969908,0.023225929772019396,0.06598897461641777,0.09935573562191853
39,1456704185402789,0.06585117334741297,0.022239889094046072,0.06352735149416519,0.11994404134212537
40,1456704185419789,0.06526882800286209,0.025147335525344077,0.05894227242081557,0.14242933867688823
41,1456704185440872,0.06925416690790233,0.030846663821508847,0.052666625053463915,0.16186705475281035
42,1456704185463094,0.07549558497156067,0.037295880057629786,0.04641844058359326,0.17346919568910532
43,1456704185487605,0.08182848039976576,0.0422457326604458,0.042905750793108516,0.17439512607350943
44,1456704185500610,0.08725834138606525,0.04404718637339216,0.04481795575741977,0.164646223400665
45,1456704185522821,0.09181449324481751,0.04218801273271013,0.053556621132192055,0.14674113854957582
46,1456704185539607,0.09551531254924357,0.03735100095377583,0.06831376419129825,0.12453265719836759
47,1456704185562059,0.09740073378186809,0.03105255192381869,0.08591686079311882,0.10185691930760755
48,1456704185583155,0.09551766753693035,0.025095757617467296,0.10155751539932391,0.08155318377736172
49,1456704185599824,0.08802998285144095,0.021059016371051384,0.11026335615422396,0.06512682213125084
50,1456704185621826,0.07479680694318716,0.019940706106151312,0.10870989019314965,0.05317811459897419
51,1456704185642867,0.0583742470099206,0.02200293077222536,0.09669321582884176,0.046445397520779086
52,1456704185659864,0.043700409062882924,0.026801087263349895,0.07752758101192915,0.046797514779241184
53,1456704185688903,0.03649793769112149,0.03333649339880022,0.05701541865525282,0.057233455805862817
54,1456704185702883,0.041119581526084914,0.04026806472122453,0.041319049970024974,0.08042503851247122
55,1456704185719871,0.05876148284317717,0.0461689716588357,0.034611490846765854,0.11637568086448145
56,1456704185741866,0.08671230266359602,0.0498379029907739,0.037485755513883404,0.1606051634831758
57,1456704185770880,0.11889074911778592,0.05062753668759592,0.04678327950498684,0.20430485286956077
58,1456704185779881,0.14753239457776662,0.04868701446541783,0.05697019698426413,0.23703169984808822
59,1456704185801882,0.16550391388538338,0.044995605917397465,0.06261557194479471,0.25106487978825887
60,1456704185822918,0.1684141197478363,0.04110728390143884,0.061046480056990475,0.245309746198581
61,1456704185839889,0.15573754173138232,0.03862891432785053,0.05406577634979828,0.2265060153114735
62,1456704185862136,0.130696140912205,0.03860259248556305,0.04788681214600852,0.2067721701728677
63,1456704185882507,0.09928329269303307,0.04107689896080118,0.05112061942901567,0.19845861667959713
64,1456704185899536,0.06901358507532007,0.04511305211322383,0.07146414744866204,0.20867320425410352
65,1456704185921314,0.0476653303492535,0.049248955123479383,0.11233408978548085,0.23596197299440785
66,1456704185942511,0.04191828357596692,0.05217652464341708,0.17081184861889612,0.2706218868250775
67,1456704185959519,0.05581868535963112,0.05327569842047589,0.2378120059319802,0.29858387313120366
68,1456704185981221,0.08937706924478261,0.05275991888208,0.3004916541989536,0.3072970014415475
69,1456704186003222,0.13791044574643546,0.051420016040813414,0.3459887827541518,0.29109704171135475
70,1456704186019222,0.19265712408974728,0.050164313530941876,0.36511153491192766,0.25367785902713874
71,1456704186049224,0.24273691524261787,0.049654255720669914,0.3547963795684111,0.2066209104547462
72,1456704186062732,0.2779586550845905,0.05027174780650082,0.3187410901581639,0.16484263331673993
73,1456704186079248,0.2915601176539078,0.05241626294390209,0.2661754048367555,0.14122456259810962
74,1456704186101249,0.28188072957878874,0.05684043069881532,0.2091322971877805,0.1428281744977249
75,1456704186122255,0.2523082865892885,0.06462814119493748,0.15898187900656285,0.16998543252432166
76,1456704186139251,0.2095606289524244,0.07663659207264398,0.12339799526350728,0.21796358338858013
77,1456704186161757,0.1611688971484255,0.09263811930902026,0.10500687918531805,0.2798068972354948
78,1456704186182263,0.11343434948317967,0.11070817553728667,0.10238042517887887,0.3488382306853996
79,1456704186199265,0.07079139617217801,0.12737779754049594,0.1129161267776334,0.41989098080955917
80,1456704186221266,0.03660345346620651,0.1387073729160992,0.13608977639197586,0.48909047375316567
81,1456704186242268,0.014584937095669102,0.14196043530392044,0.17518500518773775,0.5526435142166617
82,1456704186259776,0.009802288820038495,0.13720634485765373,0.23614589224078075,0.605592580155128
83,1456704186281292,0.02852126507583621,0.12808729025384824,0.32351543563049634,0.6416805701224538
84,1456704186302293,0.07666793231820351,0.12117899109489386,0.435035350869804,0.6550424027525574
85,1456704186326295,0.15715848199360347,0.12385625793760113,0.5576659482176205,0.6433206777031353
86,1456704186341296,0.26691331505909366,0.1412704274060153,0.6678150092460499,0.6104714944426556
87,1456704186362818,0.39500550973700244,0.17369504370781316,0.7371317632953678,0.5669520613821353
88,1456704186379338,0.523617417718069,0.21565642323033,0.7427205817158747,0.526075456133403
89,1456704186401340,0.6325428791673137,0.25759081099634534,0.6780972541231388,0.4979395707198865
90,1456704186422346,0.7058749753123503,0.2894561066038674,0.5599328398782835,0.48471426422465175
91,1456704186439341,0.7376232946320624,0.3045973089873919,0.42652694032982236,0.4808902521306367
92,1456704186462094,0.7330117972822111,0.302032336314667,0.32699672318011586,0.4788297662741041
93,1456704186482752,0.7044733804267859,0.28622988069526556,0.30421659992179373,0.4758775185443047
94,1456704186505761,0.6645508814209747,0.2647020366575264,0.3778072313666671,0.4776462131711063
95,1456704186521555,0.6200246594646965,0.24462013704173843,0.5343431784866615,0.4943666267588752
96,1456704186544557,0.5709898282507768,0.229931110607132,0.7296794483571294,0.5320283053328526
97,1456704186566234,0.515134570808641,0.22015711028636092,0.9034142119042647,0.5842287916719642
98,1456704186581866,0.45340793719780664,0.21128146855359514,1.0,0.6310611335829548
99,1456704186604865,0.3922156617591512,0.19811569988132732,0.9877847933879619,0.6470572530831088
100,1456704186626206,0.34044058038907515,0.17689397210038785,0.8683251247451829,0.613853312422203
101,1456704186641868,0.30395803939952803,0.14696343504467538,0.6730781120498349,0.5298191850379678
102,1456704186664678,0.2820227835004031,0.11106743328246524,0.4502011702039563,0.41124254561115103
103,1456704186686228,0.26806525061390235,0.074334905150291,0.24775538476519235,0.28547250102234145
104,1456704186701231,0.25404228351408464,0.04250025738186239,0.09990673751237888,0.1807174836949458
105,1456704186724233,0.23509824058657985,0.020074478529448023,0.020326832097249812,0.11739722150812902
106,1456704186746011,0.21142265236941635,0.009095863990628459,0.0034641730779563923,0.10353756457816651
107,1456704186762021,0.18651031763188514,0.00875390309948609,0.03136078465781379,0.13437448500219315
108,1456704186784317,0.16363727194615654,0.015843717960221847,0.08229429805631555,0.19524917335926423
109,1456704186805547,0.14334870698566513,0.025830960260633525,0.1378478441332535,0.266576702325919
110,1456704186821319,0.12363774529666254,0.03423363692466422,0.18647538855561213,0.32946669162123476
111,1456704186844321,0.10234871977644847,0.0379563620102089,0.22344795753223293,0.3703781776729895
112,1456704186865842,0.07981734802456261,0.03615913063292822,0.2484872447163391,0.38343081902673304
113,1456704186881349,0.059856376725253985,0.03032690493546619,0.26290539071104907,0.3699618360827425
114,1456704186904350,0.048541291018493,0.0234994808221819,0.2676515126656814,0.33619591569010565
115,1456704186925562,0.0516210129545838,0.018998322435283196,0.2627826095302603,0.2905820445488585
116,1456704186941353,0.0719216278631341,0.019197206004630995,0.24808343121277718,0.24193935658514076
117,1456704186964576,0.1078759335336156,0.0247973051940232,0.22412729846131058,0.19849066124014608
118,1456704186986062,0.15371414572272135,0.03478119809463369,0.19301759556073814,0.16714761181363744
119,1456704187002065,0.20115007138878635,0.04691857181497926,0.15834103013584563,0.15259565260417118
120,1456704187024804,0.24177759671255425,0.05851243713471839,0.12437524742387564,0.1563646365727208
121,1456704187045805,0.2691454057170988,0.0670717498863164,0.09502508689400659,0.17634916194290315
122,1456704187061830,0.2797957635290048,0.07075843169511896,0.07302620031234917,0.20700811044808742
123,1456704187084839,0.273223860625364,0.06865835650515806,0.05966771776564475,0.24021482938815603
124,1456704187106181,0.25124530232869285,0.06099630815986404,0.05494448607219647,0.266707146827859
125,1456704187121842,0.2173486840586237,0.049303930521531536,0.057913405405384664,0.2780722988426254
126,1456704187144878,0.17635105053199437,0.036394772710836305,0.0670885103293893,0.26900455801036866
127,1456704187165656,0.13431207940164214,0.025976594622671313,0.08078342911743652,0.2392991428480078
128,1456704187182200,0.09836424168745936,0.021867005427536786,0.0973071019619442,0.19487869432796967
129,1456704187204214,0.07601478247573275,0.02696658433244706,0.1149297589919559,0.14719923616567415
130,1456704187226214,0.07370647971152818,0.04227859097555128,0.13165751781377136,0.11073430396426276
131,1456704187241175,0.09492921277527916,0.06630595719564068,0.14503147896662252,0.09891065523273505
132,1456704187264700,0.13860175983403866,0.09509282442461423,0.1522564213659862,0.11965520605257704
133,1456704187285680,0.19846272099003995,0.12301329134130871,0.15086597197693913,0.17215032414579368
134,1456704187303421,0.26387412487811845,0.1441892728582223,0.13985219554524728,0.24613234243555207
135,1456704187324422,0.3220432272143676,0.15421015425370704,0.12084177572898748,0.32422470643104134
136,1456704187345445,0.3613110646795818,0.1516731922875991,0.098670842599865,0.3867984841491582
137,1456704187361934,0.3747250882574843,0.13899807937063532,0.08076286822541928,0.4180085120580407
138,1456704187384440,0.36265756556070344,0.12205793977345009,0.07511142553933146,0.41110569934496766
139,1456704187413442,0.33313715687643863,0.10848723073396885,0.08731913114634532,0.3710750687541147
140,1456704187421442,0.2992166577036381,0.10505946204041347,0.11778499080975535,0.3133308914503546
141,1456704187444444,0.2740314402912117,0.11507735079814209,0.160394259268775,0.2585874583647049
142,1456704187466966,0.2655503255787595,0.1369253327294366,0.2036634875269124,0.22562416315841136
143,1456704187480980,0.2734916369453177,0.16451614543798362,0.23428579130085828,0.22468584201292546
144,1456704187505114,0.2899910507334323,0.18946060976744106,0.24186691763415785,0.25410858166467376
145,1456704187527112,0.30376388677654687,0.20398579216662868,0.22295689696757273,0.30148552129420064
146,1456704187541209,0.305764819469904,0.2034413799242022,0.18267313751986322,0.3489119499197407
147,1456704187565100,0.2936362761192504,0.18763244640090151,0.13322805957669426,0.38025140160040066
148,1456704187586217,0.2727973777780684,0.16074916282721183,0.08999249413641705,0.38741070866411526
149,1456704187601218,0.25357074283062075,0.13002321376875925,0.06664215538199929,0.3727925047092891
150,1456704187624219,0.2457084956193528,0.10348832210308781,0.07104631235148198,0.34678836677388863
151,1456704187646232,0.2531614647929899,0.0874835396211858,0.10301645935205725,0.32181279731678547
152,1456704187663939,0.27190863818002625,0.08471244439606501,0.15432418596760264,0.3062214112864166
153,1456704187685157,0.2918642517244921,0.09355192250069373,0.21088924292672373,0.30108279157684253
154,1456704187707158,0.30147921776795317,0.10884515350262697,0.2566972583228715,0.30071828883677637
155,1456704187728159,0.2924432945522964,0.12380957869593662,0.2785411623393666,0.2960386258377271
156,1456704187745160,0.26251319852003807,0.132266592459477,0.27008816482559767,0.27893627502076224
157,1456704187766673,0.2158883386980215,0.13039170649153145,0.233633764662496,0.24590177667645843
158,1456704187788179,0.1614852352855925,0.11752804745645906,0.1787507626913452,0.19937765476249525
159,1456704187805180,0.10986173758916391,0.0959997720694477,0.11852083310257086,0.14647692295750994
160,1456704187827183,0.06989838992079342,0.07011147565998334,0.06513114789852549,0.09614515115070187
161,1456704187847185,0.04650623262462329,0.04469015986993721,0.02665746897613564,0.05643299260257849
162,1456704187864910,0.04012679587926909,0.023673523054879624,0.005990604750467927,0.03289897147261171
163,1456704187886418,0.04779490959046804,0.009237249821896986,0.001733823676234479,0.028117656985488446
164,1456704187907427,0.06479677938244166,0.0016902620811371425,0.010117243501029386,0.041692175006978874
165,1456704187924421,0.0859853919433309,0.0,0.026830421708457786,0.07028473786595273
166,1456704187946424,0.1064616897523355,0.0025733866547964566,0.048080087176360545,0.10774143997601902
167,1456704187967877,0.12199060472958782,0.007908010391051335,0.07080421424842938,0.14586691523768675
168,1456704187984661,0.12962941706119194,0.014890170505064478,0.09244191917695402,0.17625482008166543
169,1456704188006892,0.1285324532403096,0.022744105496502173,0.11074469098372633,0.19277142757232674
170,1456704188027900,0.1203094341405691,0.030815767514600526,0.12385578479699683,0.19348793311203205
171,1456704188044664,0.10833842881425151,0.03841714874283146,0.13054819123059855,0.18087695041960322
172,1456704188067112,0.09616091595720164,0.04484700267370315,0.1303819017200698,0.1600962476215769
173,1456704188087833,0.08586948080826226,0.04952371532598927,0.1236723098829984,0.13643995954837854
174,1456704188104818,0.0774887827573528,0.052068055284988944,0.11135677300512577,0.11350179995713959
175,1456704188126853,0.06963728961841413,0.052256784152301755,0.09490031626893508,0.09288780719138594
176,1456704188147612,0.06087125524391656,0.049949702091071975,0.07628135155538897,0.07511425745632999
177,1456704188171861,0.050787129833682,0.04516396294304903,0.05797103530154061,0.06067572903044569
178,1456704188186848,0.04032543842029077,0.038330888198850936,0.04277234528469713,0.05053058651340262
179,1456704188208116,0.03131166029895897,0.030556741661645143,0.033443023884347924,0.04590650825320154
180,1456704188224850,0.02562823280881612,0.023637763304983066,0.03215662165519806,0.047738807859568765
181,1456704188246852,0.02445567664396451,0.019717885269184277,0.03997593263255503,0.05608655656360257
182,1456704188268093,0.02787856346268827,0.02069543935772858,0.05652990567362869,0.06975506622244641
183,1456704188285105,0.03493378460684046,0.02761383077588015,0.07998640047191061,0.08626161794913384
184,1456704188307105,0.043976670231067425,0.04025349527378882,0.10729045119585041,0.10220644950356038
185,1456704188328103,0.05314821560893961,0.05703862300040852,0.13458323936797661,0.11399441426580308
186,1456704188345105,0.06077273361332684,0.0752698892681265,0.15773923579347596,0.11871572441766352
187,1456704188367104,0.06563602481368501,0.0916368427445799,0.17300824141627458,0.11493059984390486
188,1456704188390118,0.06717967190332481,0.10294119801510375,0.177772341310244,0.10315283865739035
189,1456704188411119,0.0656211556904659,0.10694236874037533,0.17138426464639078,0.08591161797805086
190,1456704188427120,0.06191052465497022,0.10318387592948693,0.15591880883227743,0.06730702630773576
191,1456704188449122,0.057406258469270444,0.09355651130021353,0.13647605571180219,0.05201839403813409
192,1456704188464643,0.053295295611804086,0.08225379818822356,0.12056630871438129,0.04389919441080035
193,1456704188486161,0.050008866869576986,0.07482346080122135,0.11627830836371923,0.0445816993751385
194,1456704188509162,0.04698877674176484,0.0763479555454646,0.12946277713366425,0.0527081960514349
195,1456704188524183,0.04302283745719278,0.08932143035628307,0.16088450421319403,0.06429530470328158
196,1456704188546165,0.03707886844376765,0.11218700691621777,0.20479008867218018,0.0743170855136734
197,1456704188569721,0.0293065681607611,0.1393916873278625,0.2500927286782256,0.07902680245996874
198,1456704188586204,0.021769325874423744,0.16316993709184757,0.2842045702773323,0.07804415054771612
199,1456704188606206,0.01852039889234493,0.1764326049863468,0.2980088088546081,0.07508754564045765
200,1456704188629207,0.02478820825241206,0.17556885855590168,0.2896131993050023,0.07669679053286343
201,1456704188646208,0.045267751147503116,0.16193988313587268,0.265036707612221,0.08930138012038456
202,1456704188666728,0.0818908949128172,0.14137188587995247,0.23554773200455323,0.11596478881747237
203,1456704188689249,0.13192456666884278,0.12181759475795087,0.21298220269703086,0.1544076162597628
204,1456704188706285,0.1874992354073899,0.11015292549017762,0.20510615852753156,0.19730065401402555
205,1456704188726251,0.23728224222638458,0.10944558954111934,0.21278353164609679,0.2346932240128007
206,1456704188749253,0.2699540553600883,0.1178418129004268,0.2298621856938311,0.25742761720490714
207,1456704188766810,0.2780615067363088,0.12953777220079948,0.2457474259965437,0.26007305891351096
208,1456704188785299,0.2605598336208774,0.13735815390413728,0.249671654839564,0.24242579539782608
209,1456704188808300,0.2230568537807402,0.13570791387748943,0.23490211674005332,0.2093815591581698
210,1456704188830298,0.17576961651400314,0.1225800664130883,0.20111103111896925,0.16934526605494554
211,1456704188845297,0.12997332412093315,0.09991742613648193,0.15406490206624424,0.13149165077824074
212,1456704188868835,0.094267617672121,0.0724627910425672,0.10308745760275478,0.10267142378619408
213,1456704188890340,0.07217114224692464,0.04582082964494673,0.057629910781769,0.08528733732086613
214,1456704188905345,0.06200384176789376,0.02462144731965838,0.024406951603808954,0.07721450036117769
215,1456704188928343,0.05884873806502262,0.011435710435023142,0.006041508582122832,0.0737132270875559
216,1456704188950348,0.05735992283471296,0.00661428383273128,0.0013518207053884908,0.0701350082951516
217,1456704188965863,0.05397709032288836,0.008790668940657727,0.006732814588339264,0.06392016812635154
218,1456704188988421,0.047738979992745595,0.015641112699992757,0.017822667754035775,0.05505307322132971
219,1456704189010391,0.039799439846984884,0.024595791207225288,0.030805055924206563,0.04518292629959565
220,1456704189025392,0.03231847288610335,0.03337146253821563,0.04305424022988557,0.036283993863649125
221,1456704189048424,0.02741425131271156,0.04030554068178645,0.05315804577959704,0.029695169342939493
222,1456704189070909,0.026534547989895896,0.04449817123032237,0.06055475522972798,0.02587946231864258
223,1456704189085425,0.030250102833959038,0.045771592402768686,0.06508377369087456,0.024727419737296606
224,1456704189108450,0.038272148242015594,0.044486950876247384,0.06669204449913511,0.025978352617508957
225,1456704189130423,0.04950130752053178,0.04130551044217349,0.06539878385128964,0.029388299175799812
226,1456704189145424,0.06206954188109512,0.036987531071309546,0.06146417430011167,0.03454073301839741
227,1456704189168944,0.0734985721446136,0.032268720169656866,0.055598371524302054,0.04050825203317501
228,1456704189190667,0.0811318614159113,0.027792220146832147,0.0490338831303586,0.04572295719102895
229,1456704189205659,0.08286825328106838,0.02406333762312802,0.043372211275238506,0.04829227930800735
230,1456704189228687,0.0779956813423734,0.021435044303009236,0.04024713278100524,0.04670188038641201
231,1456704189251475,0.06773017137234182,0.020168352364576057,0.040941265980343915,0.04058622452391567
232,1456704189265911,0.05509229496944044,0.020582566706384735,0.04610283853324396,0.03118011430999409
233,1456704189288669,0.044072482247109426,0.023213422368803006,0.05563230038936997,0.021214682071026232
234,1456704189311773,0.03845256323863549,0.028815059025588452,0.06869129710589203,0.014278752503797076
235,1456704189326774,0.04083238287215181,0.038082926305461506,0.0837361489538301,0.013877409583018308
236,1456704189348436,0.05221853646199311,0.05115362578449724,0.09856441761235533,0.022502325345954387
237,1456704189380730,0.07214612426017773,0.06713134771086433,0.11050518149563981,0.04099613402326089
238,1456704189386017,0.09902560215639311,0.08394311162917222,0.1169219450241528,0.06838305376626216
239,1456704189409067,0.13040456258193595,0.09869560381531067,0.1160718812888226,0.10216955387975166
240,1456704189431738,0.1630567462469727,0.10849233281099899,0.1081470637230421,0.13893989083635497
241,1456704189445734,0.19307199142046663,0.11148652161766615,0.09611137077268157,0.17498744240151695
242,1456704189468749,0.2162517853120028,0.10782543169289753,0.08582187050327755,0.20680777659600413
243,1456704189490967,0.22904255265409798,0.1000814542575684,0.08497944327406463,0.23147142881803856
244,1456704189507064,0.22996562478616106,0.09281995359705095,0.10078246910198055,0.2470387236317151
245,1456704189528968,0.22108321028912886,0.09121273725440794,0.1367647761719541,0.2531485559050937
246,1456704189551971,0.20862957840104868,0.09905638383647941,0.1900127035871837,0.25166555439169613
247,1456704189568165,0.20185931756844352,0.11699766650531143,0.2503693898630087,0.24690257418548966
248,1456704189589062,0.20978982797372356,0.1418809255653559,0.3028097274857299,0.24476419444284894
249,1456704189611028,0.23683563147267578,0.16769014142513675,0.33270883850679983,0.2505753286733202
250,1456704189628067,0.27959318731124944,0.18772060474522712,0.33190361354393794,0.26637244309677693
251,1456704189649063,0.3270817299333599,0.19693861828496417,0.3025625990917782,0.28933967000032246
252,1456704189671761,0.36507325874404006,0.19347688617467693,0.2567522948495862,0.31286762372954263
253,1456704189687241,0.3826146336229434,0.17882354332781616,0.2117308337847466,0.33011337163478705
254,1456704189708467,0.37720026415092783,0.15695497773938086,0.18304948398085216,0.33798129911706937
255,1456704189730246,0.3556012823308767,0.13295605445590836,0.17843107533058924,0.33877578742499986
256,1456704189747247,0.32989286087637454,0.1115722002719491,0.1949697836075078,0.33816327341213037
257,1456704189768539,0.31105777390560707,0.0959938240201526,0.22082080796694253,0.34066596404627764
258,1456704189791843,0.30376726141924537,0.08716778667521155,0.240620960056271,0.34581619006893793
259,1456704189807551,0.3049109703579326,0.08388158934235582,0.2420818548968871,0.3477538083999265
260,1456704189828849,0.30610202888473437,0.0835953761586512,0.2206185340517711,0.33853707872918415
261,1456704189851559,0.2983016031669488,0.08365262790817045,0.18010797396881545,0.31282570218881783
262,1456704189866848,0.2760693858099003,0.08233431082473536,0.13010333462454857,0.27108268186401385
263,1456704189889110,0.23978811954262652,0.07930278901082835,0.08148646268086314,0.21996905883001763
264,1456704189912102,0.19545146094216917,0.07527644013162649,0.04274835549332688,0.1702370070815138
265,1456704189927858,0.15235389774933614,0.0711944606412198,0.018157953741788396,0.13304564810841624
266,1456704189948859,0.11948596206760059,0.06742920338462617,0.007866835239780025,0.11583138256396955
267,1456704189971887,0.1019740366225624,0.06353980218375604,0.009191901015644226,0.11922722047499824
268,1456704189993894,0.09910768718592552,0.058680226342861165,0.018164268408825835,0.13652566565270038
269,1456704190009012,0.10489023912953634,0.05235571810301082,0.030749749272954274,0.15623038893416136
270,1456704190030896,0.11085629524769262,0.04501978831759934,0.04357187822045923,0.16670896220209905
271,1456704190053900,0.10980105870680888,0.03811767358775927,0.054235321879368914,0.16084112118131713
272,1456704190076635,0.09866769508006236,0.033527100636693175,0.06139387651749432,0.1385759999731
273,1456704190091634,0.07936626882985974,0.03269565864611419,0.06463545534578587,0.10641165429493041
274,1456704190113550,0.05741460404087891,0.03591105909224158,0.06421423255712384,0.07429428434935159
275,1456704190128549,0.03929621112448623,0.04203009501009091,0.06070586618952491,0.05148687763446096
276,1456704190151345,0.029810194210066282,0.04876424439151959,0.05472868400948238,0.04315503646654128
277,1456704190173563,0.030428344345412677,0.05341262524466649,0.046862274673562215,0.04886993777585741
278,1456704190188078,0.03908030072276289,0.05379435070713936,0.03777985552039757,0.06332711394178597
279,1456704190211113,0.05119108962978081,0.04906344451525822,0.028465529984983726,0.07872886305769708
280,1456704190233073,0.06142425647051307,0.04011312523185116,0.020320754701057618,0.0877786371931865
281,1456704190248074,0.06550987149027229,0.029413563827577677,0.015025626102834757,0.08621070806882171
282,1456704190271586,0.06166167383523637,0.020332154399278775,0.014159583023454693,0.07412080617964356
283,1456704190293091,0.051248016105650177,0.01615827216149014,0.018707407968039727,0.05583190939343392
284,1456704190308092,0.03851637463457244,0.019127704164441563,0.028626944294739897,0.03844122424161936
285,1456704190331093,0.029354457309301866,0.029719385287879128,0.042640895532536645,0.029503750060125414
286,1456704190355094,0.029358958072485956,0.04641432608762741,0.058356975849402054,0.03451733003054588
287,1456704190368985,0.04178966292284242,0.06599366509940342,0.07273789117881806,0.054950037137706284
288,1456704190392080,0.06613826579700897,0.08433516741790166,0.08286336433311015,0.0874423717290461
289,1456704190412998,0.09791480580772255,0.09755967147111794,0.08686298866514548,0.12451156261829206
290,1456704190428998,0.12985633718788697,0.10327369552993436,0.08482775798289305,0.1566373378541294
291,1456704190451006,0.15423058832963094,0.10155305720872816,0.07941274175965705,0.17514123783406219
292,1456704190474034,0.1654544205338657,0.09526592051760752,0.07576488972430084,0.17495094640460213
293,1456704190490007,0.16206018384575696,0.08942833779514876,0.08044522546004425,0.15631217932191724
294,1456704190512009,0.14721328418788354,0.08957617367662057,0.09926866067785747,0.12482330673490243
295,1456704190534071,0.12749594343417303,0.09958000044879114,0.13449709819180675,0.08973864262020402
296,1456704190550012,0.11039145183296917,0.11974174431472767,0.1824615238955078,0.06110701586462662
297,1456704190571809,0.10153478136247827,0.14610805469488708,0.23306723439594776,0.04671334491245496
298,1456704190593817,0.10294854974740542,0.1715121265308083,0.2722325794118702,0.04980030422123596
299,1456704190610818,0.11297208835224448,0.18804906849995712,0.286959099262247,0.06824332421915968
300,1456704190631819,0.12771746304072273,0.18998158296161127,0.2710719009594869,0.0954644366531133
301,1456704190654071,0.1432407067161099,0.17590519202626378,0.22886183857275405,0.12298406302379963
302,1456704190670616,0.1574920934022322,0.14939524807338758,0.17460525322665535,0.14399690583314675
303,1456704190691725,0.17129458695001953,0.11797177243670137,0.12784196325072456,0.15668567042850412
304,1456704190713411,0.18786634536568758,0.09074210387554336,0.106235132198841,0.16555253314892193
305,1456704190730413,0.21088987397417974,0.07544964763601592,0.11883917741742672,0.17954222072068027
306,1456704190758421,0.24192589012486374,0.07588964886179196,0.16238934081300316,0.20734788612898908
307,1456704190774014,0.278571692424889,0.0906392768364577,0.22211164837026648,0.252118477208603
308,1456704190790939,0.31450141832056233,0.11362859269576482,0.27694396789316633,0.30844853212686435
309,1456704190811940,0.3414799683025452,0.1363242843815518,0.30729811242080973,0.36346617336663095
310,1456704190841718,0.3523767552284318,0.15061245633782433,0.30220697284950754,0.40162455304486666
311,1456704190850713,0.34370720555544465,0.1512782117547877,0.262799995338346,0.41072359105622236
312,1456704190871766,0.3165179919148257,0.13731774690844537,0.20081902556575887,0.38617644211717234
313,1456704190893711,0.2754758653228652,0.11183359560370339,0.13332561394627612,0.33200843091516824
314,1456704190910452,0.2271066867165774,0.0806934891660121,0.076325974015491,0.2590894619020523
315,1456704190931675,0.17822911261846316,0.05048775131502884,0.03998410436433836,0.1818874847450035
316,1456704190953784,0.13483975087181674,0.026556201528217735,0.026808394873541686,0.1146707203018352
317,1456704190970783,0.10120699243689542,0.011770001940968123,0.03267271021029558,0.06785612309425484
318,1456704190991774,0.07917096690239893,0.006335099956039873,0.04956993271380632,0.045441492888181854
319,1456704191022017,0.0679444394466303,0.008428275846315149,0.06879429605831326,0.0444473976975506
320,1456704191030785,0.06459388181001781,0.015246347088240866,0.08354130953321955,0.05664012190544524
321,1456704191052021,0.06510239639120642,0.02404559987421537,0.09035845805095619,0.07187574830211595
322,1456704191073705,0.06572302969722331,0.032853522551048876,0.08928916153063839,0.08173878926311783
323,1456704191090206,0.06418587262925296,0.04068916620969562,0.08289805054294284,0.08207319669574778
324,1456704191112207,0.060270936626981984,0.047322963074509235,0.07466499274094875,0.07356110966976716
325,1456704191134209,0.055468250604988126,0.05279006759667713,0.06741756874573278,0.06040911628050884
326,1456704191149211,0.05189254260669022,0.056946746493742345,0.062397661603665916,0.047979919095790184
327,1456704191172046,0.05102231757741033,0.0592835809570528,0.05921379488807674,0.040507387665933946
328,1456704191193847,0.052912669673636205,0.059047846303827874,0.05651168387702195,0.03978941392432786
329,1456704191216852,0.05623499973493426,0.055586245176549184,0.05293451498048018,0.04514702409711329
330,1456704191231567,0.0590120176484794,0.048746295190101444,0.04792144603133992,0.05429714265732426
331,1456704191253852,0.0595424610751471,0.039158844013267524,0.04204126874642528,0.06444436606315364
332,1456704191276398,0.05698484226084748,0.028262173669707555,0.03678797525221432,0.07301156429082277
333,1456704191291411,0.05139921117075844,0.018034622771150404,0.034000833701592625,0.07787258129706572
334,1456704191313408,0.0434622129576072,0.010544497853461876,0.0352126261536786,0.07738859381736175
335,1456704191336409,0.034237045859492055,0.007507992435512977,0.04119218971023131,0.07066636746173117
336,1456704191351409,0.025197571405623863,0.010004582465915051,0.051773926772900616,0.0581780695808867
337,1456704191373928,0.018386042402449114,0.01837953434784346,0.06590820997215152,0.04243782675592893
338,1456704191389762,0.01641126954380067,0.03226430920809833,0.081830265878998,0.028171816740636967
339,1456704191412764,0.022071212453767676,0.05062368702032824,0.09731299596648371,0.021543741797757483
340,1456704191434074,0.0376037901848184,0.07178655030265928,0.11005148278570917,0.028428758901312284
341,1456704191449767,0.06377050110947115,0.09350287008400437,0.1182431030967554,0.05222088156262119
342,1456704191472566,0.09908746883899618,0.11314638057380744,0.12134251504409199,0.091974272433566
343,1456704191501877,0.13955138088516364,0.12818672667382427,0.120804171270845,0.14169228585894425
344,1456704191516876,0.17915962358236645,0.13693539540751795,0.12044590836908407,0.19128906698021186
345,1456704191532576,0.2113358300394035,0.13934747577429152,0.12598383555471324,0.2292361743454389
346,1456704191553804,0.2310057553218337,0.13745510677177425,0.14342345699089604,0.2462861298495401
347,1456704191576969,0.23661315705962882,0.13498981525834486,0.1764283872838417,0.23909890622781327
348,1456704191592999,0.23108928409253723,0.13604782744229127,0.22347954390189143,0.21231810821570388
349,1456704191613996,0.22102757601259054,0.14322270134352705,0.2762926168151391,0.17789050887955685
350,1456704191636997,0.21414650850002562,0.15614950873474784,0.321017262311085,0.15130553413409148
351,1456704191652996,0.21611466174888994,0.17138279054367392,0.3426890319742995,0.14577686367787182
352,1456704191673722,0.22826373060234836,0.18378987172918013,0.3314757469604234,0.16664252334435753
353,1456704191696212,0.24729918660338807,0.18869417291463178,0.28769774538003595,0.20865256133769725
354,1456704191712227,0.26713787375947146,0.18363157418692594,0.22276475672079152,0.2578532998076999
355,1456704191733499,0.28198889211472256,0.16900277066148583,0.15520319183470824,0.29767264726020304
356,1456704191757215,0.28914786589085645,0.1476262612492577,0.10354682394776722,0.3164965176552252
357,1456704191773090,0.2900299471408962,0.12365643775191279,0.07939228783252207,0.3128639090359988
358,1456704191794067,0.28890744524283357,0.10137510208371074,0.08362923077095907,0.29544024718865586
359,1456704191817041,0.2902111966480918,0.08418542203451378,0.10719024928042371,0.27784470574364994
360,1456704191832075,0.29606470740063506,0.07396802498525967,0.13563291606276065,0.2713729607602088
361,1456704191853049,0.30530479404497834,0.07085312394220976,0.1553011985835497,0.27964937993787653
362,1456704191876851,0.3141210717346675,0.07336570050006956,0.15827070497154663,0.2976954166744706
363,1456704191893059,0.31759611267446225,0.07885567818577985,0.14408344854951072,0.31509350555280224
364,1456704191913062,0.3112732462531604,0.08417506852394885,0.11810066539054952,0.32091116862125746
365,1456704191937127,0.2923097165415966,0.08654925155198637,0.08801084532651053,0.3079696087018885
366,1456704191952063,0.2603064673731488,0.08439667386158488,0.06054645524749696,0.27520251307823085
367,1456704191973854,0.21786127664808105,0.07771616518676198,0.039733663131384364,0.2277874229224709
368,1456704191996370,0.1703685769619753,0.06784683991738913,0.026819682552101445,0.17510929019899296
369,1456704192012370,0.12460804568907553,0.05678151046599899,0.021186979225753078,0.12718842427214813
370,1456704192033668,0.08654615318526952,0.04644068905441348,0.021395855857421077,0.09106567176174589
371,1456704192056378,0.05951982015499279,0.03823729004028088,0.025850213164870205,0.06885160902024585
372,1456704192072987,0.04374932890212261,0.03299276371627915,0.03304980679126329,0.058209672016615956
373,1456704192093878,0.0372474690192699,0.03103723037386321,0.0416399789752011,0.05464256808877226
374,1456704192116880,0.03740565468951761,0.03230399972911193,0.050443229501226906,0.05412058141033257
375,1456704192132887,0.04228172688620108,0.03636270000240401,0.05851037786350477,0.05472325190917264
376,1456704192153886,0.050942902675983,0.04244236077812922,0.06513041197287259,0.056743323080034526
377,1456704192176899,0.06288134122630172,0.049488853528121095,0.06975338504490958,0.06156765241480972
378,1456704192192979,0.07708040521143916,0.056250743714593425,0.07186739532437911,0.07017403871877269
379,1456704192213980,0.09144188934008668,0.0613852965919976,0.07094493619918167,0.08208769461935911
380,1456704192236984,0.10298911220661658,0.06361874869294158,0.06657303100043128,0.09523004809518698
381,1456704192258882,0.1087717497324352,0.06200454881679531,0.05877993857975626,0.10656820014575588
382,1456704192273399,0.10699119147686935,0.05625340872400159,0.048406507181763196,0.11312996627919637
383,1456704192296618,0.09775237859864898,0.04701025091347243,0.037264412611410676,0.11290808615743424
384,1456704192312620,0.08308824869011588,0.03592092454527729,0.027894759454289417,0.10537132447564618
385,1456704192333956,0.06632476000174478,0.02540298533922378,0.02296281638073391,0.09155605031289454
386,1456704192356629,0.051159669530841265,0.01816039934173823,0.02452794366839665,0.07386528799429896
387,1456704192372644,0.04085267547747918,0.016584108643687947,0.033466036962609746,0.05570835782770632
388,1456704192394973,0.03775834146601663,0.02221275379151338,0.04921007093448127,0.04105335352993859
389,1456704192416971,0.04324101075707201,0.035385811066700724,0.06983578218512859,0.03391833256108112
390,1456704192433102,0.05783413862118105,0.05513192405659896,0.09243797203952703,0.03779164375587197
391,1456704192455047,0.0813561323689648,0.07925578580492419,0.1137180542101346,0.054939600602974835
392,1456704192476767,0.11270976961649305,0.10458179654550191,0.13070931393393906,0.08560552276749066
393,1456704192492775,0.14938482916899487,0.12738635567346043,0.1415740768813044,0.1272852739034309
394,1456704192515776,0.18708538267970207,0.14410876256043634,0.14636836796868627,0.17447390725175096
395,1456704192537041,0.22006778015318582,0.15234891791941865,0.14755320047475481,0.2193047529478258
396,1456704192552778,0.24251530496629625,0.1519164799619156,0.1498937548970172,0.2532422185330892
397,1456704192575304,0.25069372745025725,0.14543350822979625,0.15937806057698933,0.2695388116590974
398,1456704192595810,0.24500983646426952,0.13794284810545693,0.18106274774977232,0.2657197630988786
399,1456704192611966,0.23077780923684368,0.1353020118773524,0.2163553377515937,0.24509041440871082
400,1456704192635813,0.21680907783869938,0.14179479517914062,0.2609529147537289,0.2163301464983289
401,1456704192657032,0.21197353337536126,0.1580250119112541,0.30492980762896155,0.19080283402717302
402,1456704192673071,0.22120346009674843,0.18025420384307406,0.33572720216724583,0.17828015094126073
403,1456704192695335,0.24310541134607358,0.20165891739139882,0.3431483434285282,0.18290645867078634
404,1456704192716664,0.27068951494715954,0.21492189394778494,0.32398410607015915,0.20160358346617738
405,1456704192738628,0.294983733268726,0.21491777140204232,0.2838017499387789,0.22610251142381046
406,1456704192755339,0.30959498861234425,0.20039234844171705,0.2348828923803798,0.24770677619646866
407,1456704192775850,0.3136905091277264,0.1741671808843817,0.1912811665218631,0.2620354020648963
408,1456704192798947,0.3117683301134726,0.14201335882325755,0.16329789406089426,0.27077816309688063
409,1456704192815964,0.3104768582086163,0.11069759617904226,0.15382674746963643,0.2793165972713531
410,1456704192836964,0.31446710037315495,0.08587110333979713,0.15810268908106123,0.2918434876268393
411,1456704192858959,0.32368339926598205,0.07050112089439624,0.16677502742760433,0.30740412533641476
412,1456704192875861,0.33343323817012094,0.06435579192393748,0.1705721889765446,0.3196277554366913
413,1456704192896309,0.336849531535198,0.0646376037200938,0.16410824615251718,0.3201910933206054
414,1456704192918525,0.32807733814474227,0.06741387896063572,0.14715547232129889,0.30346546976380123
415,1456704192935313,0.3044724385634462,0.0692127992147176,0.12337704105707932,0.2694451650420606
416,1456704192956626,0.26719615881121134,0.06811790971225101,0.09782559400094097,0.22379303098735456
417,1456704192980337,0.22066320785936394,0.06395644115580044,0.07475016670849546,0.17566362729230928
418,1456704192995336,0.17138892058452806,0.05768165474844432,0.0566123798336146,0.13454153987457662
419,1456704193016555,0.12637304997011595,0.05048380053293995,0.04429424545670748,0.10714472548324186
420,1456704193038551,0.09121389669410906,0.04320222171641325,0.03783620865764652,0.09531569081028353
421,1456704193055339,0.06859847605767865,0.036269926159507304,0.03697861006399929,0.09567887810707214
422,1456704193076945,0.05789210343945341,0.0300098709235375,0.0411987381714534,0.10127986208941038
423,1456704193098487,0.055990208320388764,0.024909823446415905,0.049428241216732574,0.10454719374478268
424,1456704193115354,0.05886623889091456,0.021612378015414203,0.05984274558435493,0.1002604599237923
425,1456704193136584,0.0629563166555084,0.02063224119993927,0.06999738829397564,0.0872277900983747
426,1456704193158643,0.0658522667928241,0.022022190348000008,0.07733011426591065,0.06809336916607063
427,1456704193174945,0.06636832301621672,0.02521516622426891,0.07985026098832662,0.04765016911482063
428,1456704193196388,0.06435583893492787,0.029123445645359385,0.07673919588911804,0.030641696083516988
429,1456704193218603,0.060486957433430875,0.03242665015163773,0.06861532765505678,0.020035211070038812
430,1456704193234391,0.05593363414201818,0.03392968325815529,0.05734809520007454,0.01630481974964725
431,1456704193256399,0.05182651580376097,0.0329074685763809,0.04549806502943644,0.017736377280010866
432,1456704193279261,0.048623998082933224,0.029391024144329415,0.0356130399244996,0.021414274983244334
433,1456704193294256,0.045761991983942055,0.024328228650815856,0.02963910207960007,0.024424486133911613
434,1456704193318257,0.04191205710051336,0.019508827617953587,0.028615529766055338,0.024856236961021034
435,1456704193338545,0.03583515208428893,0.017174140787998355,0.03267807446849258,0.02235097408053728
436,1456704193354260,0.027420490808483487,0.019369611793961624,0.041260471732456325,0.01815249827568189
437,1456704193377788,0.01833843464954243,0.027250159996977847,0.053320287840761565,0.014744224658496112
438,1456704193398514,0.011913078983467829,0.04059541942327622,0.0674663035070182,0.015178731876824178
439,1456704193414298,0.012178938540746987,0.05771454379223807,0.08200196907437404,0.022194697569575678
440,1456704193445305,0.022410716561747264,0.07578943444691238,0.09502301746412029,0.03726757442761589
441,1456704193458300,0.04361345529007333,0.09158587629364844,0.1047255775974186,0.059835758359951675
442,1456704193474936,0.07353892026293475,0.10236912457103912,0.1099756096668037,0.08699395406042733
443,1456704193497571,0.10673811112781233,0.1067924991345544,0.11101178056542865,0.11388570647453544
444,1456704193518804,0.13590207988774508,0.10549669593316016,0.10997671319392768,0.13485207911689456
445,1456704193541800,0.15425867083790995,0.10117790861558786,0.1108687863093798,0.145135048276421
446,1456704193557804,0.15822168402336056,0.0979618983243361,0.11856838097304814,0.14265248247320045
447,1456704193578807,0.14913986539049773,0.1000896702753809,0.13692314077985712,0.1291590691619198
448,1456704193593812,0.13317009768242308,0.11022290866201175,0.16647837382058542,0.11013179871314949
449,1456704193617938,0.11906607230311268,0.12803298884276448,0.20302388570967306,0.0931034517236034
450,1456704193638930,0.11472132862323749,0.14984549788029725,0.23814338744024063,0.08488329799940285
451,1456704193654931,0.12404812082381042,0.16970556893664837,0.26205409225260506,0.08883146874701428
452,1456704193677324,0.14571144348671922,0.1814795314131427,0.2676308873104891,0.10359903807402439
453,1456704193698904,0.17434213165134527,0.1810583635428128,0.25362329826307073,0.12419147780973257
454,1456704193713833,0.20357950640568753,0.16774385670555336,0.22538544064250549,0.14499324208331607
455,1456704193737002,0.22927590225918656,0.1443653744842629,0.1927265390520589,0.16311506029558104
456,1456704193759002,0.2510153351451694,0.11623471004489949,0.16590081342519478,0.1799536884520453
457,1456704193774346,0.2710604388012327,0.08942749860727246,0.15154197053355895,0.19975831216332748
458,1456704193796855,0.29151370573474356,0.0690090656570555,0.15029137645086618,0.22591448970915023
459,1456704193820002,0.31165814727948826,0.057755440274927565,0.1571174968034397,0.257300250948436
460,1456704193834965,0.3272063347427427,0.0557080341638142,0.1641004941357166,0.28720279014760614
461,1456704193856858,0.33188215245073044,0.060581337672210286,0.16420554796786158,0.30572711417197385
462,1456704193878869,0.3204159597597624,0.06875348430884683,0.15408133120972378,0.30438464797810116
463,1456704193893994,0.29130152916052754,0.07646645570580601,0.13467364033559304,0.2801748257538557
464,1456704193917054,0.24785305865598833,0.08090172029003022,0.1098746425090957,0.23699888831397542
465,1456704193938996,0.19720480576837268,0.08083446484510758,0.08440049569368131,0.18414218051060213
466,1456704193961962,0.14806780756116003,0.07664833870860079,0.06206629380416049,0.1330914251444618
467,1456704193977392,0.10831087858164427,0.06973931457971437,0.044989886307672,0.09410217076692623
468,1456704193998609,0.08296385194163082,0.06165627103933858,0.03364607928170651,0.07336699535172407
469,1456704194021685,0.07294919138745955,0.05346042433493127,0.02741607839016566,0.07135670122456145
470,1456704194037400,0.0749158299501775,0.0456134226708056,0.025271014626830044,0.08288423486878159
471,1456704194058408,0.0824566614661898,0.03833975472247499,0.02631669361065872,0.09908350022060995
472,1456704194081919,0.08848104262283409,0.03210204128766884,0.03003079407195035,0.11071175161927467
473,1456704194096921,0.08788513369753465,0.027792192930442106,0.0361642740967204,0.11149561570903148
474,1456704194117921,0.07939249961810509,0.02649016873513916,0.04443717258630915,0.10017147623985706
475,1456704194141922,0.06577213120095343,0.028962276358571504,0.054241634442347364,0.0804861076674539
476,1456704194157923,0.05240351472908307,0.035217462772014485,0.06451875487774114,0.059341242316126266
477,1456704194178932,0.044890658198711256,0.04435037954510626,0.07385480152113945,0.04398996827110857
478,1456704194201994,0.04675658859244496,0.054703099735334625,0.08074031910414974,0.039430083224130386
479,1456704194216988,0.05809575416709386,0.06423313013106487,0.08389936079542108,0.0468814292876176
480,1456704194238986,0.07558194409353869,0.07094476934047053,0.08260746790957733,0.06368056168825276
481,1456704194260951,0.09368708815269278,0.07328565166908661,0.07693391823956186,0.08437476474237873
482,1456704194277457,0.10658676089765277,0.07046410286779449,0.06784875889652711,0.10248426371637324
483,1456704194299967,0.11008700285807346,0.0626650574269641,0.05714359510591373,0.1123593975532095
484,1456704194321983,0.10295879751757159,0.05113009748177106,0.04714581037027936,0.11066673686289177
485,1456704194336972,0.0872678024951118,0.038048446072575445,0.04026061204171394,0.09719351452253562
486,1456704194367516,0.06762920063796192,0.026221498046749205,0.03844243500023597,0.07484921718845315
487,1456704194380991,0.04972745857835514,0.018532596227143285,0.042747771714969546,0.048955376815419865
488,1456704194396992,0.038717260782702864,0.017342250083195274,0.05310778126180599,0.026076266008606557
489,1456704194419992,0.03807126305767927,0.023972215378927103,0.06836583165516204,0.012680742911030456
490,1456704194441993,0.04909901334798679,0.03840693065594905,0.08651774139143875,0.013857477305380134
491,1456704194456995,0.07100127203526249,0.059257320726064724,0.10505860557160232,0.03222592131558023
492,1456704194480006,0.10119192380339338,0.08396221987127118,0.12138873095409347,0.06716266217381053
493,1456704194501300,0.13572882369811445,0.10918632295489383,0.13329107804205795,0.11449342505207967
494,1456704194517014,0.16988078640466603,0.13139375427470898,0.13949363858181507,0.16683933524157504
495,1456704194540017,0.19895384541394323,0.14757410743625302,0.14025414086043506,0.2147905713155517
496,1456704194562017,0.21942253629466485,0.1560231717251901,0.13777792473037798,0.24893280161061532
497,1456704194577528,0.23016102995624826,0.15694389090936772,0.13616192825599857,0.26241877240053313
498,1456704194600037,0.2332482983048066,0.15253005281407944,0.14054667879644858,0.2533369581510257
499,1456704194622039,0.23366768277625036,0.1462769061258097,0.1553751639363143,0.22585290109519282
500,1456704194637042,0.23752142727420503,0.14161953591010662,0.18215519306025987,0.18932835148324062
501,1456704194660040,0.24921204596438545,0.1404945702891281,0.21772398071380236,0.1554498675341884
502,1456704194682057,0.2689585161696494,0.14265558292631905,0.2542385314090861,0.13440201735411222
503,1456704194697058,0.2921652823919551,0.14619178332507052,0.28147426022286964,0.13158293227126291
504,1456704194726297,0.3111683624581959,0.1488678002480403,0.29065260850521946,0.1459844505387817
505,1456704194742061,0.3185192988512946,0.14932755656459115,0.2779272922516825,0.17063860051607482
506,1456704194757099,0.3103385425306829,0.14743378168616497,0.2458194689634187,0.19503292255980606
507,1456704194780074,0.28847229710590755,0.1437873910963889,0.20218100321546134,0.20895813578278452
508,1456704194801348,0.26057356403328585,0.13903645352713315,0.15756520957204884,0.20653605869921482
509,1456704194817086,0.23768495275722193,0.13354867211916066,0.12228080793803882,0.1886566785882099
510,1456704194840088,0.22986154531706307,0.1276029547638149,0.10395759886047892,0.1625549234307594
511,1456704194861130,0.24167096102768756,0.12183737848032553,0.10586027979441825,0.13868517368661917
512,1456704194877876,0.2699648906924851,0.11748339236497311,0.12601532391537992,0.1263710435992957
513,1456704194900881,0.30523969694171915,0.11601625887549796,0.15744252668079503,0.13011685656673377
514,1456704194921883,0.3357108084734664,0.11826740811443329,0.18987708999634753,0.14800552994380214
515,1456704194937887,0.35168617204822317,0.12354857419537797,0.2128542964411389,0.17271621072954335
516,1456704194960623,0.3482091406406982,0.12950074132832814,0.2191169100099124,0.19468681709079652
517,1456704194981924,0.32554476841025093,0.13295461121440344,0.2068259175322778,0.20603131792400395
518,1456704195003656,0.2881688417770203,0.13135813401769073,0.17957853431485138,0.20341449374434023
519,1456704195019657,0.24295964228385264,0.12390719456401002,0.14441701528817014,0.18867167595911627
520,1456704195041643,0.19716004789791639,0.11174263663603065,0.10897290567464485,0.16733652425446924
521,1456704195057650,0.15678946959019036,0.09720866821573726,0.07907417239580247,0.14630791699866155
522,1456704195079342,0.1259652899226711,0.08269841886977362,0.05762436337664734,0.13178286070525438
523,1456704195101295,0.10686870408894412,0.0697316609042164,0.04479296107734027,0.127739606409588
524,1456704195117049,0.09965424184274171,0.05865749663714931,0.03898716285962825,0.1347932261927055
525,1456704195139050,0.10205081949271236,0.048993977279417976,0.03794335386849659,0.1495647070571196
526,1456704195161058,0.10923909015539755,0.040128108019818295,0.03952857109620188,0.16516835333474822
527,1456704195177812,0.11482647416261811,0.03198671177903526,0.042202473304419785,0.1732473099050219
528,1456704195206862,0.1130253798243031,0.02534003661011078,0.04526756809219021,0.16710435314174857
529,1456704195222864,0.1010994131507458,0.021588940236211614,0.048954320288253333,0.14458475509282004
530,1456704195243860,0.08071967154182778,0.022148354729529154,0.05423223171205946,0.10926651888252269
531,1456704195259865,0.05743199905362325,0.027737671636679985,0.062249823122127984,0.06934660210053407
532,1456704195281916,0.03850645991904085,0.03790742682808636,0.07353305155614027,0.03477821877791427
533,1456704195303237,0.030232053544207833,0.05099012871083334,0.08731702793334065,0.013946234803717743
534,1456704195318919,0.03579777256786725,0.06447476853479699,0.10141056434580611,0.011137166283466286
535,1456704195341919,0.054413130980508685,0.07565663953493734,0.11274077540101107,0.025497779660102065
536,1456704195362921,0.08171436393457296,0.08233106977934435,0.11835812585848351,0.051544595685887186
537,1456704195379426,0.11111869233218571,0.08329440846809434,0.11644737504897149,0.08088800604168092
538,1456704195402933,0.1356799234271859,0.07850811423653953,0.10693627509474486,0.1046731917755507
539,1456704195422934,0.1499933999478121,0.06894150975504375,0.09154884172516443,0.11615394702162987
540,1456704195438934,0.15163839850846078,0.056230107292956695,0.0733815176271398,0.11270735440040289
541,1456704195461936,0.14162050631429052,0.04229117536044218,0.056152729415340955,0.09658102693573503
542,1456704195483415,0.1235533732575009,0.028977414532852283,0.04329023866341438,0.07396591235456866
543,1456704195499541,0.10194160528678968,0.017823859460231052,0.03710840792350133,0.05263587527287003
544,1456704195523343,0.08047751343025365,0.00994861672853868,0.038399876330257786,0.039065137908848524
545,1456704195543628,0.06122146217140528,0.006120520077014437,0.04662623469738689,0.03618902386799683
546,1456704195559346,0.0448755452502248,0.00689948794935035,0.06055127819222824,0.04265452676412568
547,1456704195582848,0.031652722774069685,0.012690469473584825,0.07888320750336245,0.05373187550877692
548,1456704195603848,0.022049957558448803,0.02360973111632468,0.10051764766975359,0.06338594622425955
549,1456704195619854,0.017142141283188736,0.03920549371217973,0.12427732910298578,0.0666173643734118
550,1456704195643586,0.018387577719317646,0.058194073101946076,0.14839641157767972,0.06120627820906027
551,1456704195663586,0.027082302436749688,0.07839449248774022,0.1701858555774128,0.04836291561630602
552,1456704195679598,0.043598254844901874,0.09697785687745769,0.18627159253111253,0.032265056848985244
553,1456704195703864,0.06659079821828215,0.11103797333722012,0.19355408588601164,0.018792343680020022
554,1456704195723863,0.09250799349141936,0.11836550731643208,0.1906722088853015,0.013878266994594168
555,1456704195739610,0.11583478776322341,0.11818942504836463,0.17938187099131503,0.021887321871439658
556,1456704195762611,0.13037550671284506,0.11158332950747292,0.16505122972985142,0.04438334459873501
557,1456704195783832,0.13145594123236704,0.10128782425851107,0.1556209686670357,0.0795832739624087
558,1456704195799829,0.11835657940508491,0.09090501695389906,0.15897858691000535,0.12264822726725905
559,1456704195823832,0.09586920786670092,0.08371994518839584,0.17959703819890896,0.16676126905152305
560,1456704195843834,0.0739022772043489,0.08164201916219624,0.21600552808303,0.2047316237391605
561,1456704195859833,0.0646982015840558,0.08475257952438647,0.2605753498194357,0.2307049772103296
562,1456704195883860,0.07833076890302872,0.09162690881189381,0.3020072525725527,0.2415008672188109
563,1456704195903709,0.11822907311850463,0.10015568070423331,0.32942112145601476,0.23717257128707575
564,1456704195919710,0.1788617243740841,0.10835435618285034,0.33613473247520426,0.22061468849635238
565,1456704195942931,0.24700123151631947,0.11478430591208891,0.3216031590240651,0.19643777484040933
566,1456704195963713,0.3063560889281558,0.11855769409274917,0.291128360741717,0.16972222284145463
567,1456704195979723,0.3435995305623575,0.11916727715775793,0.2539339308612305,0.14527228995520017
568,1456704196002853,0.35299101893869117,0.11640949693504364,0.22046343988292436,0.12746789854633667
569,1456704196023852,0.3375282339640354,0.11049335957632364,0.19947599961971188,0.12021845963894488
570,1456704196038733,0.3065286924533696,0.10220962891166485,0.1953488259103309,0.12644777972097185
571,1456704196061850,0.27143415371973634,0.09293641713058311,0.20632714413683995,0.14700932142262843
572,1456704196083201,0.2421503749426245,0.0843439469309084,0.22479469578645597,0.17954848350314653
573,1456704196098979,0.22515631048194892,0.07787148846826761,0.24010148587752037,0.2181991732914808
574,1456704196121981,0.2230537528159412,0.07422555272137377,0.2430090940519848,0.2547503414033222
575,1456704196142985,0.23457570484770562,0.0731546923208919,0.22954756226476017,0.2809562086637468
576,1456704196158983,0.2546508593322141,0.07360645738257354,0.20227185690689758,0.29075965451493613
577,1456704196181993,0.2750463351534244,0.07417810979882171,0.16848383434451056,0.2813981942352657
578,1456704196204998,0.28630503383262973,0.07362550106272903,0.13664913721926744,0.25347320358929587
579,1456704196218999,0.2808406413135228,0.07117904055949958,0.11289052087720501,0.2106979848547195
580,1456704196242001,0.25589143885339727,0.06657831297270571,0.09902089769670912,0.15955748288631796
581,1456704196265004,0.21475238680450076,0.0599534068486628,0.09264371833205953,0.10844010830163665
582,1456704196279549,0.1656745126164285,0.051743078672289534,0.0889176345544435,0.06593810589566033
583,1456704196302523,0.11915041810635044,0.0427079211658973,0.08299083941754601,0.03872095474311448
584,1456704196325524,0.08490086434659254,0.03393274767657814,0.07203331904869074,0.029802820698134027
585,1456704196339552,0.06954702414613088,0.026680792317258156,0.05618991165443942,0.037832251762579844
586,1456704196362551,0.07529872280864304,0.02207443423614373,0.03836793304253751,0.05759593132229588
587,1456704196385807,0.09961192417016328,0.020715461941537883,0.023213690236889486,0.08161948207681877
588,1456704196399841,0.13576858861891855,0.02241693990858432,0.015745934013124963,0.10253220391387616
589,1456704196421915,0.1743887006650387,0.026190249679179673,0.019993042779052488,0.11555456922724766
590,1456704196445787,0.2056954504882307,0.030547327444705435,0.03784025778627275,0.1201529410538029
591,1456704196466915,0.22199425869964107,0.034046326356266636,0.0682555900063739,0.11995265942530867
592,1456704196482423,0.21961989643506025,0.03585469496648175,0.10709852168459348,0.12066575723366514
593,1456704196504931,0.19971987703275385,0.036033382042746545,0.14771474250901298,0.12686507983581136
594,1456704196526154,0.16759189599764915,0.03537073917662744,0.18235663546011777,0.13926744337885774
595,1456704196542953,0.13077131291841326,0.03486614604869074,0.20411802696739517,0.15409449111596174
596,1456704196564936,0.09657271574034405,0.03516884643184662,0.2087441174793377,0.16494664936612122
597,1456704196586952,0.07006426633585879,0.03626291161675034,0.19567533382685195,0.16613946384824876
598,1456704196601953,0.05320410528313276,0.0375110308953918,0.1680436857305697,0.15561053897329527
599,1456704196624954,0.045208299234234896,0.03798268977829185,0.1317741107605942,0.13583461031417138
600,1456704196645958,0.043674845519930824,0.0368850036371226,0.09416466299045151,0.11241127873267767
601,1456704196661967,0.045893229296135,0.03389893533137981,0.062305997363991575,0.09131225553247918
602,1456704196685354,0.04993083132378665,0.02928992460026122,0.04162481846328461,0.07638638985373901
603,1456704196706355,0.05520324250764046,0.02377981173975223,0.03481826728096993,0.06831580558939654
604,1456704196722357,0.06232614136615463,0.018274872541216326,0.04143023044866863,0.06518939621358975
605,1456704196745359,0.07228498130056321,0.01358674183651459,0.058196249683859176,0.06397854695713881
606,1456704196766361,0.08531881870387324,0.010251020023051017,0.0800602182627749,0.061983119031134
607,1456704196782368,0.10014774129575787,0.008477032860964843,0.10155336936839324,0.0576810622346654
608,1456704196805376,0.11404385976448145,0.008195669004718005,0.1181147068930533,0.05090316081527251
609,1456704196826684,0.12376771589895288,0.009141914208899463,0.12696428417357486,0.04252776952959715
610,1456704196842379,0.12687214422694756,0.01092274470292475,0.12732417628920845,0.033947361121209545
611,1456704196865380,0.12267929830445297,0.013061134341072,0.12005516883479891,0.0265311342326453
612,1456704196886547,0.11247382038187946,0.01504082203391074,0.10700304187550476,0.02124013888251594
613,1456704196902246,0.0989106281371314,0.01638066280332445,0.09039621815097675,0.018443515052070637
614,1456704196924247,0.08499275760094119,0.016741245486828465,0.07248778242553099,0.01789891066039997
615,1456704196948249,0.07307415875811002,0.016029183157031536,0.05540958087114267,0.018860428395189893
616,1456704196962255,0.06423733659415382,0.01444350587675492,0.04107208521945904,0.0203239078611964
617,1456704196984723,0.058214066027461646,0.012424809431123084,0.030982333198941406,0.02140630238185802
618,1456704197006753,0.053822835004535864,0.010516000193534407,0.02599891488122997,0.021742532640592005
619,1456704197022494,0.04970538747390561,0.00918943316390293,0.026153125058841195,0.021670523098723294
620,1456704197044494,0.045027863496660624,0.008707464551279442,0.03065184520382689,0.022026422649460947
621,1456704197066833,0.03986245798456669,0.009062158619506766,0.038079295898037005,0.02361305793118357
622,1456704197082522,0.03514984428781135,0.010006273578101915,0.04672608200161403,0.026647902232383683
623,1456704197104531,0.03231027386923422,0.011158266047044967,0.054943587674359695,0.03053207979203238
624,1456704197128532,0.032641169169306476,0.012144061424787638,0.061436846084052844,0.034088692298367806
625,1456704197142533,0.036674776720571005,0.012728453144143522,0.06544087347180665,0.03614314152288633
626,1456704197164534,0.04373516066229346,0.01289134175480803,0.06675981338980963,0.03612169117056259
627,1456704197187855,0.051956609262402774,0.012821647262430841,0.06568228008934297,0.034326347029585265
628,1456704197201900,0.058872887633366566,0.01283271978353301,0.0628198580063662,0.03172724351240418
629,1456704197223851,0.062373374943283696,0.013235443007555164,0.05894163464632698,0.02941136684908323
630,1456704197247748,0.06157178851042719,0.014221557460411628,0.0548703542088582,0.028041103475665182
631,1456704197261809,0.057168109106513154,0.01580191674099431,0.051442436260003145,0.027638858110340555
632,1456704197293805,0.05117566374868436,0.0178187849920506,0.04944843713356314,0.02776406947209024
633,1456704197308806,0.046189901931872085,0.02001733142204111,0.049456142843370375,0.02790372870509895
634,1456704197321876,0.044503398456714416,0.022131085783066162,0.05153355666432312,0.0278221044026934
635,1456704197343830,0.047340863974596845,0.023932577120922845,0.05505381625435733,0.027693927610430328
636,1456704197368722,0.054418350209891324,0.025235596163384694,0.05879750648693577,0.027976928845516426
637,1456704197382759,0.06396512602071815,0.025878569068493566,0.061382233148793604,0.02909938203885315
638,1456704197403945,0.0732333610302778,0.025725953035145344,0.061792601909308235,0.031122090307282548
639,1456704197427947,0.07934470513791975,0.024697015083068985,0.059702507722409426,0.033557968050624463
640,1456704197441950,0.08016712351243188,0.022803240006751224,0.05544325284819639,0.03546441409527258
641,1456704197463951,0.07488148429229041,0.02016589435919763,0.04970942127448279,0.03577259557601639
642,1456704197488485,0.06402401845189355,0.016992135187920476,0.043216097464591624,0.03368218062910306
643,1456704197502487,0.049038171374655104,0.013509895879398074,0.036477718787756186,0.028942879905277854
644,1456704197524488,0.031619829016907935,0.009892638642345455,0.029754439049771896,0.021946233157459184
645,1456704197548489,0.013233841024405578,0.006222367137478809,0.023113501982038976,0.013638736912539681
