,timestamp,x,y,z
0,1456703940183118,0.021732262843979607,0.005816036870722918,0.019893251830657696
1,1456703940199117,0.03442813542086419,0.01516806666813467,0.02224270140013252
2,1456703940221663,0.04735754511502873,0.024655328304182718,0.023728515585166584
3,1456703940245138,0.060010038054542345,0.03391901536274632,0.023919749662205534
4,1456703940260138,0.07114061513881874,0.04212383736931784,0.022843920015359256
5,1456703940281140,0.07906943230337986,0.04809053774977525,0.021072487405779477
6,1456703940306173,0.08228355689734078,0.050677297374076176,0.019695108861388262
7,1456703940359613,0.08002519049541407,0.049238282348977536,0.0201461331246378
8,1456703940360368,0.07264316649499361,0.04395721226360843,0.02386808149887476
9,1456703940368561,0.0616443068151657,0.03594916179231308,0.031869375375653146
10,1456703940383399,0.049455409819233895,0.027125783352359847,0.04430392191398354
11,1456703940402364,0.03893528717537503,0.01984393200815606,0.060232843806772046
12,1456703940425885,0.03273360783037792,0.016366564442226963,0.07771612333355747
13,1456703940440425,0.032643101741723905,0.018230967254602787,0.09429124438294018
14,1456703940486604,0.03909461677182182,0.02570060275804326,0.10770635598169481
15,1456703940489394,0.050935923844894634,0.037496462636252385,0.11657384356372999
16,1456703940506463,0.06562354492049655,0.050951437550870025,0.1205699962605305
17,1456703940522135,0.07986216100513562,0.06262530670911674,0.12003666563446809
18,1456703940544407,0.09051476680792843,0.06926827612730847,0.11524951025752977
19,1456703940566408,0.09542463868948842,0.06887502519012648,0.10592342594620266
20,1456703940582411,0.09382923547241102,0.061507438881749844,0.09146308084432221
21,1456703940604653,0.08630016297779562,0.049604277558943394,0.07203132151874093
22,1456703940626917,0.07440296939793861,0.03760529434568936,0.04997051686741949
23,1456703940641459,0.06034400081634436,0.03089016161146525,0.030774542129287874
24,1456703940664664,0.04674486368679855,0.03426033709934479,0.022817612144800877
25,1456703940687636,0.03648712294804369,0.05037015714584691,0.0354149460208978
26,1456703940701427,0.032453618256333985,0.07854176941583259,0.07546811577938504
27,1456703940724958,0.03704741910949701,0.11434252257579676,0.1437483410118651
28,1456703940746958,0.051558199376466496,0.15026805916653146,0.23241767596632382
29,1456703940762155,0.07560810479400201,0.1777271689532243,0.32529864358316596
30,1456703940784124,0.10689699860783847,0.18998779571141947,0.4015706721119532
31,1456703940807128,0.14131685191126547,0.18493160509948303,0.44224658898789715
32,1456703940821906,0.17342618894674097,0.16611079132729842,0.43744015147918786
33,1456703940843190,0.19736689558834283,0.14133296162666634,0.3916046018666374
34,1456703940867190,0.20832203900494609,0.11943073463466354,0.3240691909440491
35,1456703940881200,0.20424856883918546,0.10686725333265887,0.2636208324339131
36,1456703940903193,0.18706629281976517,0.10571635910366073,0.23837098944864873
37,1456703940926705,0.1624054258291538,0.11366930807652924,0.264652058794885
38,1456703940941205,0.13774129933909057,0.1257361121090033,0.3396699462669486
39,1456703940963206,0.11973454576696058,0.13661570410702975,0.4413007062378117
40,1456703940986207,0.11199280827156759,0.14253677415003052,0.5354263044104872
41,1456703941002209,0.11408043549865407,0.14187521590885777,0.5881315200368322
42,1456703941023959,0.12196182900126923,0.13472344585679227,0.5782815416602544
43,1456703941046220,0.1296438515912908,0.12212058920177656,0.5059288645209153
44,1456703941061220,0.13152344789646256,0.10551346463829891,0.3933804261692132
45,1456703941083221,0.12465540007714984,0.08654933282628441,0.2781607141289783
46,1456703941106222,0.11002031023795822,0.0670121073883005,0.20005710982611252
47,1456703941122729,0.09224082169460755,0.04875810466321861,0.1869223868201689
48,1456703941143235,0.07794372232608517,0.03367850733507196,0.2446068687640374
49,1456703941166236,0.07352847169398827,0.023747713383032797,0.35483847621913717
50,1456703941182237,0.08315281388979968,0.02106873584980759,0.48188828521621224
51,1456703941203238,0.10748230296809856,0.027706084274428437,0.5856187804688553
52,1456703941226745,0.143462843670179,0.045191993826679135,0.6359484225996201
53,1456703941242251,0.18513187188724406,0.07385015758610515,0.6229147578438042
54,1456703941263252,0.22527776421240656,0.11228351334088373,0.5582180664702141
55,1456703941286254,0.25760282477337604,0.15733777420834816,0.4679840600033153
56,1456703941302254,0.2788671561835107,0.20454915159134143,0.3806432568902393
57,1456703941323762,0.29021496803388847,0.24872505980038798,0.31595318576016596
58,1456703941346268,0.29677698202678154,0.28432313302248363,0.2799212404295836
59,1456703941362269,0.30524073144425,0.30583120581264017,0.26654434485412193
60,1456703941383269,0.3203839378546928,0.3087531064171252,0.26365822625285357
61,1456703941406472,0.3425195954615224,0.2912954958448532,0.2591871820987456
62,1456703941423067,0.3673135579376514,0.2558145644187791,0.24547053922460138
63,1456703941443380,0.38786356665073807,0.20878325619504756,0.2210270725521523
64,1456703941466186,0.39772168318064244,0.15894339068118118,0.18988044290503373
65,1456703941482182,0.3934561505519734,0.11453862503065187,0.1589519613302893
66,1456703941503183,0.3758674016815707,0.08105103748895853,0.1346850802020367
67,1456703941526934,0.34944167898580086,0.060464627354776146,0.12048745730647847
68,1456703941542397,0.3201472661979038,0.05215181062015166,0.11601982753599939
69,1456703941565400,0.29256074679100935,0.054552413841029324,0.11819263246479368
70,1456703941586737,0.2680293554361835,0.06639372752325455,0.12299868683773606
71,1456703941602402,0.2450758059190977,0.08660167162448604,0.12736033343478423
72,1456703941624002,0.22155756831656717,0.1130768398656777,0.1304376424861196
73,1456703941646024,0.1967717005803602,0.1414536981175322,0.1339292046336904
74,1456703941663025,0.17207237536008602,0.16513665808759717,0.14111321033157262
75,1456703941684185,0.15009126555752467,0.17713333694124345,0.15496403988281196
76,1456703941707186,0.1336784125818576,0.17294928194176717,0.17617406165615881
77,1456703941722552,0.12538257012655274,0.15295005358168215,0.20187401572005473
78,1456703941743064,0.12727662894871314,0.12280625343370234,0.2255932173062114
79,1456703941766063,0.14037597494273232,0.09172552203571126,0.23886551609602052
80,1456703941788063,0.16338366093473494,0.0692748143436506,0.2344161876948028
81,1456703941803064,0.19156749467673642,0.06208978284887074,0.2097286325353979
82,1456703941827013,0.21714295667073139,0.07168568875611003,0.1689303870619994
83,1456703941848474,0.23181357223695606,0.09412991562674401,0.12162087096596451
84,1456703941863475,0.23042772707868572,0.12160385772351288,0.07920668273249794
85,1456703941886753,0.21347976374467956,0.1451223048197921,0.0508137207846536
86,1456703941908477,0.1867253739792783,0.15734882507718817,0.04075274978268355
87,1456703941923488,0.15819436821258887,0.15471038617569532,0.048264411659055595
88,1456703941946493,0.13460838665957164,0.1384460304713303,0.06901463408803264
89,1456703941968499,0.11926724967128143,0.11437338601000605,0.09721905843806232
90,1456703941985496,0.11212353298790438,0.09121609913371677,0.12736550637045663
91,1456703942006532,0.11133901618988198,0.07774376875314834,0.15507071478143777
92,1456703942028953,0.11508320706219917,0.07961751785553037,0.17729593560602935
93,1456703942043901,0.12265880333566453,0.097174839741418,0.1924112736710876
94,1456703942067120,0.13461589686138292,0.12513328397655996,0.2002318730110008
95,1456703942089091,0.15195455695620005,0.15443988405862125,0.2017270780932319
96,1456703942105906,0.1748231954926371,0.1755511057164212,0.198301815930537
97,1456703942127003,0.20132006020910104,0.18175361779952934,0.19112137753514924
98,1456703942148213,0.22699460559771736,0.17116529225484314,0.18103943553198734
99,1456703942165211,0.24543544026119454,0.1468130409676737,0.16909128763950748
100,1456703942186481,0.2500346027341922,0.1151369123585462,0.15696018533519196
101,1456703942208500,0.23658635872529152,0.08378485881897615,0.1469180813266686
102,1456703942226137,0.20574146743683408,0.05949424978313793,0.14124280823407045
103,1456703942246803,0.16389275200761957,0.046542128265482124,0.1414695354910338
104,1456703942268803,0.12153547858543608,0.04599895277353113,0.14789852698198153
105,1456703942285803,0.08955529945016487,0.05585103306836826,0.15966624252517655
106,1456703942306810,0.07519829468189343,0.07187173076449746,0.1753404419023873
107,1456703942328860,0.07964253518106382,0.08894832569990431,0.19348652555766196
108,1456703942345865,0.09815687347622809,0.10251864119133304,0.21255006026004308
109,1456703942366867,0.12255154269324783,0.10983930201519099,0.23013468297431194
110,1456703942388868,0.14461979342816073,0.11082411169285583,0.24267112001123986
111,1456703942405870,0.1589032951794056,0.10808922469284413,0.2464113879592623
112,1456703942426820,0.16362679663752205,0.1059107074603221,0.23949307153582133
113,1456703942448586,0.15982982887726374,0.10831536412812624,0.22364769066673407
114,1456703942465586,0.14974523662966585,0.11718298352173706,0.20412209937801928
115,1456703942486863,0.13558524330334362,0.1313695288977464,0.18754868628568377
116,1456703942508802,0.11917764735813248,0.14725493315366855,0.178883553164772
117,1456703942525848,0.10210793666753294,0.1602930242431025,0.17916878288452276
118,1456703942546805,0.08584363040805115,0.1667100796865852,0.18541013018403846
119,1456703942569030,0.07171779076076185,0.1645974261046316,0.19257472362098244
120,1456703942586030,0.060993157934076815,0.15407817562780424,0.1964007208689923
121,1456703942607059,0.05506832217659161,0.13675779746922564,0.19533941402864993
122,1456703942629215,0.055487418403667776,0.11498993283659016,0.19079186345098512
123,1456703942645693,0.06335331973522824,0.09139320798889201,0.18596841121918345
124,1456703942674733,0.07822619532453841,0.06868554902512762,0.18415328352884336
125,1456703942688667,0.09724384888861731,0.049603614294803665,0.18698111732149417
126,1456703942705928,0.11540392272693446,0.036648146862430585,0.19326467668392885
127,1456703942726728,0.1273538096039738,0.03158725736324891,0.1990064703510673
128,1456703942747950,0.12993424786069818,0.03486185787036192,0.19891229190703802
129,1456703942772043,0.12395163466791877,0.04513774760966635,0.1888969234091623
130,1456703942787042,0.11396115020811223,0.05925365739517744,0.16832766367724697
131,1456703942809038,0.10610957176391694,0.07276136170798875,0.14072058741335808
132,1456703942825932,0.10529841193531232,0.08109792758738735,0.11241432472487149
133,1456703942847103,0.11317461547146156,0.08112757965320971,0.08991242816501485
134,1456703942869043,0.12774915989632227,0.0724532927173063,0.07730810579965992
135,1456703942885894,0.1444519378001501,0.05780890787939461,0.07501434821689917
136,1456703942906896,0.15783736727522704,0.04219470441523173,0.08018281957690784
137,1456703942928913,0.16325823154337687,0.03103749088906779,0.08834473366410533
138,1456703942945921,0.15828946605945468,0.028133843460088185,0.0953636100443261
139,1456703942965927,0.14381576466669058,0.03421877870055059,0.09883435188570765
140,1456703942989027,0.12432954815658216,0.04672016198235808,0.09847141421412223
141,1456703943012004,0.10678282099333208,0.06078160381800894,0.09553699813097485
142,1456703943027623,0.09792590668195367,0.07113619155067998,0.091741264349492
143,1456703943048136,0.10116317780652019,0.07405141608111314,0.08821618593534981
144,1456703943071353,0.1146039164151402,0.06853150500828122,0.085045993413266
145,1456703943096172,0.13153289787288439,0.05634434034134689,0.08144310108573284
146,1456703943108336,0.14321154501118147,0.0410251722333423,0.07629705075486938
147,1456703943131931,0.14262835509475252,0.02643527905685909,0.06878679929518165
148,1456703943147728,0.12738134451689972,0.015536815920651058,0.05889733239389315
149,1456703943168735,0.10050011376773751,0.009824608485018189,0.047726752020402365
150,1456703943191736,0.0691669118426719,0.009467045249309277,0.037424921562007864
151,1456703943207731,0.042182241711103775,0.013852340426996866,0.030680517311416952
152,1456703943230742,0.02723140963333595,0.022110436862541886,0.029897595838801642
153,1456703943251970,0.028712903051023697,0.03332802194380046,0.03639254648423046
154,1456703943267756,0.04650944838840926,0.04646132428387396,0.04994624695144961
155,1456703943288986,0.07587269005767505,0.06019214004108613,0.06886621098950123
156,1456703943312147,0.10851040864302572,0.07302168191211245,0.09045713943694438
157,1456703943328154,0.1348190349978523,0.08369756937394866,0.11162465726496722
158,1456703943349369,0.146839839672075,0.09173231451374855,0.1293819513381083
159,1456703943371371,0.14100345082282972,0.09757278667067071,0.14125519547042473
160,1456703943387371,0.1194726140702538,0.10215670786395924,0.14575026572285216
161,1456703943408377,0.0893399625534887,0.10609283718705631,0.14293465837118227
162,1456703943431893,0.05996655148875587,0.10912758977087438,0.13486822415554162
163,1456703943447401,0.03963818432225013,0.11045218872952077,0.12543051987791554
164,1456703943468619,0.032877658699739035,0.10975955998221315,0.11934608351965001
165,1456703943491665,0.03926984715152756,0.10835034625976056,0.12074377174953985
166,1456703943509405,0.054015586674112805,0.10950851544322314,0.1318756512305972
167,1456703943529414,0.06992492442179651,0.11773410920157404,0.1524352946911541
168,1456703943551758,0.08019435582958938,0.13693985181844356,0.1795833432067923
169,1456703943568759,0.0810599273973477,0.16827127112775017,0.2086434030570731
170,1456703943589026,0.07335076254862877,0.20860670490518987,0.2343646115077662
171,1456703943611992,0.062224958200938235,0.25069243314085266,0.2524248250201827
172,1456703943628055,0.05502972779878092,0.2851905457421657,0.2606281495243971
173,1456703943650124,0.05806629589094928,0.304016385693631,0.2594430945719675
174,1456703943671018,0.07357427941509133,0.3037217109674279,0.2521124462217799
175,1456703943687019,0.09820921245793676,0.28764721389189424,0.2448757334075797
176,1456703943709045,0.12380154266000087,0.26600156768095673,0.24729761550851287
177,1456703943731560,0.1404201838441389,0.253516461455147,0.2716368567051602
178,1456703943747030,0.14077192222930296,0.26478833068626945,0.3297900531182904
179,1456703943768037,0.12408260477607531,0.3082536330932718,0.4275259206674195
180,1456703943792050,0.09753206829656559,0.38102444013331327,0.5581088000830067
181,1456703943809050,0.07440893025386516,0.46754780132687557,0.6992569056334258
182,1456703943829254,0.06976510198675127,0.5439541680786596,0.8167974360436725
183,1456703943851599,0.09534422078956149,0.5870531695734325,0.8750564840449735
184,1456703943874264,0.15547212390349283,0.5840225562398456,0.8499690389247357
185,1456703943888552,0.24494693184269783,0.5380110817864775,0.7389893868156711
186,1456703943911602,0.34946533794843176,0.4667662335490626,0.5633751200551055
187,1456703943934079,0.4488677131846264,0.394924879077895,0.3620861963071989
188,1456703943949294,0.5228729688602853,0.3438628859642999,0.18008773689180874
189,1456703943971337,0.5576318023305572,0.3241636895220329,0.05562682641733246
190,1456703943988321,0.5502734272170725,0.3340073751459636,0.010695304288067939
191,1456703944010298,0.5091168881675168,0.3630857743841899,0.047041921724539054
192,1456703944031819,0.4493855993095429,0.3985561295784351,0.14789454755088838
193,1456703944048326,0.38656785122878673,0.4293431992856945,0.28399143559969076
194,1456703944070327,0.33064623053086695,0.447659593454353,0.42193260551550693
195,1456703944091368,0.28384725577665276,0.449265983547132,0.532813593187123
196,1456703944108328,0.24258940381018038,0.43422005693081833,0.5989889924333804
197,1456703944132377,0.20201001986316927,0.4079193652176544,0.6168386511781448
198,1456703944151388,0.16034435491336105,0.38055745010351205,0.594544305036694
199,1456703944168354,0.12104287245614219,0.36357517509729637,0.546255135640486
200,1456703944190355,0.09195233184657263,0.3640264336139558,0.4859817910632667
201,1456703944211362,0.08212973062425029,0.38004732715312345,0.4242774097793778
202,1456703944228408,0.09766626383386424,0.4007883965321087,0.3683757344283647
203,1456703944250636,0.13827001854701054,0.41167363025381587,0.32395377403517434
204,1456703944271412,0.19608176220628326,0.402243342418986,0.29595735724799577
205,1456703944293392,0.2572794775133245,0.3718449790224402,0.2872942954194208
206,1456703944310430,0.3059169104135811,0.32975077363468985,0.29642974431736774
207,1456703944341409,0.32867324955152805,0.2899419850903622,0.3162042916330984
208,1456703944353411,0.3189521052221024,0.26394903573011186,0.3355212041565679
209,1456703944370411,0.2789166613953106,0.25567859921926533,0.3435308152775695
210,1456703944391661,0.21858657377762725,0.2604084071991377,0.33417591965352766
211,1456703944413413,0.15223318574980663,0.26778803711284815,0.3086120806155154
212,1456703944430615,0.0936091045348648,0.26700435471199563,0.27416609846498213
213,1456703944451560,0.05204683672091834,0.2516368470350754,0.24039964413185155
214,1456703944473512,0.030752428702781,0.22212112211114285,0.21440702411297982
215,1456703944490539,0.027386470182975957,0.18492404880708832,0.19782596896424623
216,1456703944511651,0.03612090840801462,0.149056165482162,0.18699547003667438
217,1456703944534115,0.05006808954418962,0.12179032677259254,0.17585753804077656
218,1456703944549956,0.06319474312552359,0.10577113439966555,0.15968572297004271
219,1456703944572064,0.07135578787867196,0.09879537424595591,0.13747965688767944
220,1456703944592958,0.07259811488718737,0.09592789695034018,0.11195248784956426
221,1456703944618090,0.06707667239739713,0.09238721955960875,0.08760238719931665
222,1456703944631472,0.05676557172729259,0.08556992334329143,0.06833869836861518
223,1456703944654091,0.04491935053372117,0.07549108709627479,0.05602690866151323
224,1456703944669987,0.03521988794556295,0.06395508079099531,0.05043565372600283
225,1456703944692091,0.030739996619227494,0.053281692132609235,0.05015378895516187
226,1456703944713983,0.033043940669057935,0.04533093859027303,0.0536425855533996
227,1456703944730510,0.041736591400752296,0.0411616954526131,0.0597808603488318
228,1456703944751018,0.05459479477190204,0.0412052366177147,0.06780202487911913
229,1456703944774016,0.06820679566201054,0.045582569898232214,0.07699805918049196
230,1456703944791018,0.07889156215724137,0.05428309248427466,0.08661076034830024
231,1456703944812020,0.08362891658089264,0.06720486531648655,0.09597239490509812
232,1456703944834035,0.08082405376455203,0.08420309426000555,0.1046467889154517
233,1456703944850050,0.07081483522765322,0.10517596228530106,0.11240780999726022
234,1456703944872050,0.05597228682656676,0.13004704816429175,0.11918094197112555
235,1456703944894051,0.04020175955803408,0.15851895916260683,0.125122571206802
236,1456703944911052,0.02786061399401749,0.18964746970800192,0.13076091765190384
237,1456703944933407,0.022460365081894723,0.2214325866089931,0.13694592320066953
238,1456703944954041,0.02568454511263791,0.2506505266823532,0.1444956598269537
239,1456703944969921,0.037097960828201736,0.2731026590486049,0.15368659875573726
240,1456703944993079,0.054587501504523656,0.2843898341338332,0.1638293124408852
241,1456703945012920,0.07525293067323854,0.28121241418588977,0.17311536094295407
242,1456703945038715,0.09630296440989276,0.262945601146912,0.17888810805926364
243,1456703945053507,0.11559332180821624,0.23283026422979297,0.178469257057753
244,1456703945073794,0.1317140074069237,0.19788482177244973,0.17046801364194467
245,1456703945090508,0.1437707147723286,0.16708332292952482,0.1560643561796428
246,1456703945113511,0.1510717152903799,0.14840894089757548,0.1394493103771277
247,1456703945133817,0.15297632628100888,0.14624182835439098,0.12690221313075717
248,1456703945150330,0.14926290877918633,0.16036748349232435,0.12482512705162913
249,1456703945174330,0.14118307250278705,0.18681628327581468,0.13771289056433372
250,1456703945193548,0.13266086453934747,0.21969121381214318,0.16691307722209756
251,1456703945210332,0.13044754378905288,0.2529207168613996,0.21036425324913766
252,1456703945238770,0.14229007630768367,0.2814547275857397,0.2630448799114861
253,1456703945253561,0.17338584620433417,0.3020549600301186,0.31793790904648167
254,1456703945270561,0.2227963841239855,0.3138920251761379,0.36751069386333296
255,1456703945293562,0.282071242442434,0.3187855120196524,0.4055716948329631
256,1456703945317563,0.3374787780295013,0.3207030141372278,0.4289897338202558
257,1456703945330857,0.3752595845314412,0.32441346484518935,0.4385585471984366
258,1456703945353873,0.3874184851884812,0.3337956268252807,0.4385106584474271
259,1456703945373875,0.37502248339390515,0.350678159076784,0.43480160850085814
260,1456703945391116,0.347215224144287,0.3746692925435271,0.43292523973640157
261,1456703945412876,0.31652456159070064,0.40345051603817006,0.43609111371182147
262,1456703945433818,0.293081557346817,0.432700172711695,0.4440959867169921
263,1456703945450107,0.28080755094893556,0.45588423064277694,0.45304351516097124
264,1456703945473108,0.2772943041403016,0.4653202095527193,0.4565298339282064
265,1456703945493327,0.27690970937564874,0.45528734448975633,0.44876627402338076
266,1456703945516326,0.27492250848919475,0.4257032452996818,0.42843258398560813
267,1456703945533995,0.27019492444654347,0.38342678088009713,0.40037488233049456
268,1456703945553640,0.2652295377722372,0.3394769860303695,0.37305152334956565
269,1456703945576648,0.26398728783333086,0.3035509770155545,0.35291924327313107
270,1456703945593354,0.2689629134010928,0.27942656015143114,0.3398353370720109
271,1456703945613356,0.2793098746477733,0.2641988952253848,0.32720319833712036
272,1456703945636881,0.2912368551348945,0.2514631312943796,0.307088107622946
273,1456703945653390,0.30041358649120664,0.23597304555444712,0.27669037332894114
274,1456703945673605,0.30461738407344197,0.21688852937131237,0.24145604526678918
275,1456703945696391,0.304706682793468,0.1982483256456242,0.21256979052589747
276,1456703945720392,0.3033765808364399,0.18706024776140345,0.20056215744993647
277,1456703945733981,0.3027040078613591,0.19013829595880957,0.20918338612801493
278,1456703945757191,0.3021006658481977,0.21076576003693495,0.23312694792149005
279,1456703945773191,0.29794969238323804,0.2462756995477402,0.2606192909455874
280,1456703945797194,0.28527828858961607,0.2877640326086685,0.27916760723380024
281,1456703945817194,0.2606035948399991,0.32262628049833236,0.2811894587297378
282,1456703945833488,0.22420252464917914,0.3391936883681208,0.26655107464440314
283,1456703945855282,0.18033398174500107,0.33134976548829137,0.2411246865647404
284,1456703945876586,0.13538184893703142,0.3007960922467111,0.2129395807520982
285,1456703945893284,0.0952721358287634,0.2558675720604421,0.1885108673308744
286,1456703945915286,0.06369686125542634,0.2076625186512594,0.17102110015644334
287,1456703945937079,0.041786737669267444,0.16557353606019343,0.1603975770550772
288,1456703945953613,0.028872771291513753,0.13435190086649307,0.15436112698283935
289,1456703945975631,0.023533324953088373,0.11372016353057833,0.149615405420004
290,1456703945996598,0.024280967099663747,0.10008657465579256,0.14294111858754213
291,1456703946013599,0.029694568752210933,0.08906541645970892,0.13226681806953622
292,1456703946035665,0.03820548461183065,0.07760511771615106,0.11753443820215127
293,1456703946057009,0.04791713248693616,0.06510959690596069,0.10083699581320833
294,1456703946072927,0.05675826463287438,0.05341442439653059,0.0855034633492401
295,1456703946094928,0.06300680144179013,0.04574956911697864,0.07452125164512467
296,1456703946115935,0.06590464965702365,0.04509920783500934,0.06925503629375794
297,1456703946133486,0.06592722938464178,0.05266033834240326,0.06928500996261495
298,1456703946154958,0.06443114595634347,0.06714680815639697,0.07341868876361722
299,1456703946175959,0.06278912454147172,0.08532699804038002,0.08109009584768584
300,1456703946193979,0.06146121438201596,0.10356666858353139,0.0930640846653781
301,1456703946214963,0.059545546822838455,0.11960451842091545,0.11083895710444758
302,1456703946236979,0.055158449303721296,0.13363360588859496,0.1350358640350525
303,1456703946252991,0.04657824747594924,0.14811000131890534,0.16376700709770745
304,1456703946274990,0.03364638504225404,0.1663590472337102,0.19210929587614853
305,1456703946295991,0.018718434140423953,0.1906132560709465,0.21333079866921384
306,1456703946312993,0.006605877621949564,0.22033331483512672,0.22157560236907495
307,1456703946335534,0.0033374843312127434,0.2515501833495293,0.21473547006443397
308,1456703946356446,0.014026379618908836,0.27765793985380105,0.1959033465114132
309,1456703946373220,0.040523056809658786,0.29164732395158477,0.17249617444238632
310,1456703946395221,0.07975913930472771,0.289212781023937,0.15344046977247994
311,1456703946424436,0.1236451666597512,0.2715846768209973,0.1458474875533309
312,1456703946433704,0.16098359822351963,0.24658453745836517,0.15275813085553896
313,1456703946455630,0.18108414302717832,0.22670345934910296,0.17280254124155242
314,1456703946476601,0.17786497685007027,0.2242972911945301,0.20148209220501903
315,1456703946493597,0.15270131025306616,0.245848762728429,0.23303783750070278
316,1456703946515634,0.11462291157471627,0.28832343001489963,0.2620559689402011
317,1456703946536674,0.07764794093546067,0.33984394374790294,0.28465068898034374
318,1456703946553669,0.056361725547877606,0.3845925410884135,0.2993109952404171
319,1456703946575642,0.061437103290013374,0.40952079972645417,0.3071592906065664
320,1456703946596645,0.09646595002599821,0.40949165854467684,0.3112411928893443
321,1456703946613680,0.1568057813263846,0.3884511809119657,0.31501415935971594
322,1456703946635944,0.23069900881252625,0.3565723721303652,0.32091241096148165
323,1456703946656807,0.30262421962387726,0.3255278789661488,0.32991798185056775
324,1456703946673804,0.35820446437674863,0.3046872856741981,0.3422836753376717
325,1456703946703804,0.38897947795237753,0.29987328406129177,0.35863221202032947
326,1456703946716836,0.3948213324527066,0.3143502042773849,0.3804609184581902
327,1456703946733612,0.3827001103416036,0.35020989997451457,0.40963612902646707
328,1456703946755656,0.3625618881342059,0.40811193843513943,0.44700203539643113
329,1456703946776883,0.3426592770030515,0.4847245570470782,0.4904950777008388
330,1456703946799769,0.32659567602181133,0.5695452526986995,0.5337356915105065
331,1456703946815661,0.3130850084721385,0.6443026296621972,0.5667258179095522
332,1456703946838606,0.29813440053185775,0.6871954158135801,0.5794610912673863
333,1456703946859897,0.27837605183296343,0.6809751764987475,0.5667495324492969
334,1456703946877653,0.2536559632455205,0.6206662449563085,0.5308524578933147
335,1456703946898619,0.227348907462293,0.5163120615911473,0.47999167380067204
336,1456703946919817,0.2043634058060023,0.3891541825254374,0.4240808364145418
337,1456703946935855,0.18829760060472178,0.26370274308828456,0.3708977791911902
338,1456703946957958,0.17957297775974443,0.16007861245749921,0.324757898852543
339,1456703946978991,0.17556452535390324,0.08981003657889117,0.28725644515678683
340,1456703946995797,0.17240968601681,0.05558191414742679,0.25842465810499154
341,1456703947019931,0.1671636686019568,0.05346330376897216,0.237310089290291
342,1456703947039512,0.15895486912479442,0.07575364564214151,0.22212490794294024
343,1456703947055027,0.14869653108045283,0.11326187648546465,0.21046657791486953
344,1456703947078029,0.13794737418935313,0.1566872268290032,0.19980463630364068
345,1456703947099070,0.12793659743222488,0.19735338807890027,0.1880705556012618
346,1456703947115030,0.11934385976682588,0.22781359342332128,0.17409360091232426
347,1456703947138552,0.11258160803064786,0.24276581821633453,0.15776798877709494
348,1456703947159065,0.10790907350803915,0.24021896247154595,0.13999504659568357
349,1456703947175067,0.10511603640055617,0.22220422395608577,0.12245777935185684
350,1456703947198068,0.10319492610897985,0.19420720201576294,0.10726877030491144
351,1456703947219069,0.10056276875727048,0.16323630014971793,0.09656562485657703
352,1456703947235487,0.09589053417091316,0.13543382603961385,0.0920643734378009
353,1456703947259972,0.0890088738922823,0.11441531501369831,0.09447080754103367
354,1456703947279183,0.08123107842042754,0.10088738623842546,0.10280760335183341
355,1456703947295974,0.074833774262993,0.0932647854774314,0.11410235482441237
356,1456703947318975,0.07199829876854101,0.08869438655801644,0.12396307342941694
357,1456703947339797,0.0738206050702791,0.08409179404011863,0.12804220843161063
358,1456703947355289,0.07989600737302359,0.07705266649824846,0.12369104988756993
359,1456703947384625,0.08860999836931242,0.06654494863400741,0.11092178990881787
360,1456703947399625,0.09787542973846582,0.05322601837874821,0.09227283210311969
361,1456703947415293,0.10588019165806704,0.03927099201893954,0.07182790229305533
362,1456703947438814,0.11151746917177312,0.027762851261290977,0.05396414221273861
363,1456703947459362,0.11443302623081607,0.02183527133971004,0.04231836726730894
364,1456703947475626,0.11482359086733761,0.023799383550463335,0.03917009968382424
365,1456703947498542,0.11313500043532622,0.03448093854873519,0.04517941256985724
366,1456703947519620,0.10972177885765165,0.05298206486469845,0.059356038353518374
367,1456703947535809,0.1045272904323877,0.07700983286110807,0.07925825201215093
368,1456703947558829,0.0969653681192141,0.1037216564080688,0.10151084016922228
369,1456703947579565,0.08624805235403062,0.1307585238429879,0.12263291869440206
370,1456703947595571,0.07222379070924154,0.15693176729285765,0.13996523130922456
371,1456703947618568,0.05640443811550766,0.18211283543423668,0.15237622689435731
372,1456703947639675,0.04253160527776531,0.20632791215247293,0.16047592997379387
373,1456703947669962,0.03605464249311878,0.22864301513895588,0.16619918218490706
374,1456703947678663,0.04233693842467527,0.24668046811778818,0.17178138049223443
375,1456703947699665,0.06407736267591993,0.2572640015721911,0.17839111919937803
376,1456703947715924,0.09902036328862177,0.2579592898716034,0.18500374006076042
377,1456703947738654,0.1392334975032937,0.24865342197655568,0.1882791564346558
378,1456703947760977,0.172843587765849,0.2321789212129222,0.18392980891629102
379,1456703947781776,0.18815154746882568,0.2134470416558972,0.1692714189667235
380,1456703947798765,0.17881456969904805,0.19744613529806776,0.14576675881137544
381,1456703947820766,0.1478757658944893,0.1872907708185809,0.12007527597106558
382,1456703947835562,0.10845411140337413,0.18362166046841213,0.1027493434028257
383,1456703947858579,0.0801240808829182,0.18577670630159424,0.1049102898288814
384,1456703947880581,0.08192366563885263,0.19380475436576428,0.1342011358423324
385,1456703947901954,0.12453259209031844,0.2096321631863847,0.19154758598328375
386,1456703947918582,0.20471516925748318,0.23623355736321694,0.2699471342427876
387,1456703947941040,0.30452771184403726,0.2751774017994623,0.356000968670529
388,1456703947957986,0.39626255278786937,0.32424157257439307,0.43410515575590725
389,1456703947977896,0.4519207225260294,0.37693202742008775,0.4920126441252962
390,1456703947999897,0.45382727132919953,0.42470602463342916,0.5255314149097952
391,1456703948021938,0.40197364689374204,0.46122136277090314,0.5403675488566319
392,1456703948038891,0.3147284226155525,0.48660044634693467,0.5503805526202161
393,1456703948059934,0.22241720813070007,0.5089346988431447,0.5725976457606455
394,1456703948088940,0.15635934017195882,0.5408265706167327,0.6198746969117143
395,1456703948097936,0.13767063033533045,0.5913551611144635,0.693140939208519
396,1456703948120936,0.1700493755023676,0.6575543526586728,0.7769518226940324
397,1456703948141893,0.23927446462504,0.7214247598082386,0.8424856468692852
398,1456703948158887,0.31970227353645814,0.7561016737839975,0.8589012206153958
399,1456703948180871,0.38511112800664477,0.7388670102795518,0.8081954801216493
400,1456703948201903,0.41895770121236225,0.6635197708346224,0.6949964613161715
401,1456703948225886,0.41924681759016263,0.544536655264544,0.5451171665408288
402,1456703948240853,0.39634198752343675,0.4108077485741337,0.3939665496118911
403,1456703948261915,0.36600257928231833,0.29327173615993585,0.27222489194450566
404,1456703948278913,0.3417557387166983,0.21357499562993057,0.196689518535614
405,1456703948300911,0.32985401750953597,0.17877812468375126,0.16929166376368496
406,1456703948321911,0.3281584747286733,0.182795508323743,0.1815826567231605
407,1456703948338770,0.3285869469878758,0.21186157012327958,0.2199007848548275
408,1456703948360014,0.3216163614844312,0.2503826317626279,0.2685875758820535
409,1456703948381016,0.3008563010910227,0.2848449801833974,0.3119295584887632
410,1456703948398017,0.26587572879432075,0.30560842295273133,0.3365958161876385
411,1456703948420017,0.2221947406857049,0.30766700111175765,0.3347814001651304
412,1456703948441859,0.17864553695127564,0.29104405116132953,0.30635176619765575
413,1456703948457861,0.14361575489044995,0.26038686833721125,0.2582927214049983
414,1456703948479862,0.12206015069208594,0.22314643171254178,0.2016363669393977
415,1456703948502968,0.11438476475909652,0.18675368255475888,0.14770208511377794
416,1456703948517967,0.11714309287609848,0.15615329600377048,0.10540789421268522
417,1456703948540659,0.1247749923579403,0.13284460246085208,0.08007107939307025
418,1456703948569941,0.1315602260818039,0.11553865897100735,0.07307683389647249
419,1456703948578676,0.1332237869908496,0.10168976418496498,0.08184838126208858
420,1456703948600677,0.12788836389335448,0.08899170894201455,0.10024345401383848
421,1456703948621996,0.11624601968377557,0.0762428077267851,0.11989215988434179
422,1456703948638484,0.10097208029016343,0.06342632329427444,0.13260190385393372
423,1456703948659994,0.08557075693254344,0.05122738799450678,0.13310569162333288
424,1456703948680996,0.0730351814553499,0.04041087930237173,0.12089411912114043
425,1456703948697999,0.06485128923212807,0.031445922364902464,0.10018409112040949
426,1456703948719997,0.06078906970517715,0.02452082705870445,0.07805839859874032
427,1456703948744025,0.05951460870545661,0.019825893319428682,0.06174405523782702
428,1456703948758069,0.05956836585187744,0.01786265159437014,0.05628026267838408
429,1456703948780033,0.06008962319219605,0.019584895423196864,0.0634167903834298
430,1456703948803034,0.06092664005711126,0.026289237781609427,0.0818762368293132
431,1456703948818035,0.06220592183009778,0.039260187695931655,0.10852069475865943
432,1456703948841936,0.06376465115669398,0.05922395270917011,0.13968274374901946
433,1456703948863208,0.0649094391731362,0.08572994898178615,0.1720000862225841
434,1456703948878207,0.06468687889558594,0.11669444042359173,0.20250668820628398
435,1456703948900208,0.06243329033250437,0.1484217211159417,0.22830317525909696
436,1456703948923210,0.05821284574330421,0.1763002414949976,0.246478838241598
437,1456703948939298,0.05297153933253958,0.19602750117277062,0.25475477335485663
438,1456703948960094,0.04847480861163519,0.20489123505269657,0.25265168325543436
439,1456703948983094,0.04704592007953769,0.20261016748350452,0.24239187977843474
440,1456703948999096,0.05095706377922941,0.1914855101946864,0.2287465691357493
441,1456703949020096,0.06143449305256194,0.17584790055976635,0.21766683176864687
442,1456703949058317,0.0776586739540743,0.1608802375141581,0.21431149812790276
443,1456703949061348,0.09647044709570973,0.15101860858933072,0.22145471790513427
444,1456703949080312,0.11333316545698285,0.1483984141713637,0.23902321916888425
445,1456703949103313,0.12442162206912698,0.1520563745164662,0.26490001689138243
446,1456703949119314,0.12889706186009445,0.15855473753480434,0.29650954719527167
447,1456703949140326,0.13006293432836896,0.1642524594956739,0.3322841123257845
448,1456703949163335,0.1345074914428234,0.1686409418307056,0.3720069968503309
449,1456703949184624,0.14930525669763692,0.17713679835376656,0.41551057592575663
450,1456703949201337,0.178388505843033,0.20107066357386913,0.46041855745636234
451,1456703949222704,0.21992794514918204,0.25336513963400104,0.5008055096824154
452,1456703949244354,0.26651988318863795,0.3409403662862112,0.5285061226115745
453,1456703949259397,0.3086840576457706,0.45783265796932,0.5370236428911699
454,1456703949282684,0.33996515625750234,0.5838310748227723,0.5258424422454192
455,1456703949304615,0.36036202313918736,0.6906623749994105,0.5021693116791323
456,1456703949319613,0.37550493475202973,0.7528362380801822,0.47842133010349663
457,1456703949342409,0.39189178349749404,0.7570758684168649,0.46642050748727404
458,1456703949364438,0.4114797917100237,0.7056960297755555,0.47155627434808944
459,1456703949381421,0.4295394717486428,0.613879759505441,0.4903742164029569
460,1456703949402456,0.43725090221240853,0.5040143456315441,0.512697928395106
461,1456703949424421,0.42699372184361933,0.39974946808983536,0.5263255292275836
462,1456703949439429,0.39662840774460295,0.3204597456614369,0.5212822660134783
463,1456703949462439,0.35046181123823633,0.27641200269651944,0.49216834564010337
464,1456703949484441,0.2973157894665131,0.26603496104115276,0.43912364286352934
465,1456703949499447,0.2476657746745013,0.2769748027684248,0.36815787877672695
466,1456703949522725,0.21136754374255654,0.2911272775258609,0.2904655780736077
467,1456703949544652,0.196070215585247,0.291780890026144,0.2198944759595756
468,1456703949559666,0.2056048013874325,0.269955302865743,0.16884299195026065
469,1456703949582746,0.23821519992640983,0.22743860108716468,0.1443114134306513
470,1456703949604678,0.28564758429439985,0.1754388620544028,0.14600489028412864
471,1456703949619683,0.33433242366894395,0.1295222075362302,0.16713711608603188
472,1456703949642480,0.3688454471750987,0.10301782564470631,0.19713818462965677
473,1456703949665685,0.3765765203706199,0.10167948671559827,0.22489727689795375
474,1456703949678875,0.3519352526407313,0.1217514727956767,0.241481706793178
475,1456703949702956,0.298423511571209,0.15204940944637862,0.24190223101489222
476,1456703949724892,0.22747361099661587,0.17897027801710555,0.22595168035830288
477,1456703949739692,0.15431836038846952,0.1921310274992391,0.19812842511233153
478,1456703949762705,0.09274590424487024,0.18810591933354637,0.1663204410660213
479,1456703949784707,0.051119640213204025,0.17071959159710537,0.1390547492284392
480,1456703949799922,0.031088255841591736,0.14812926533311785,0.12212253201766599
481,1456703949822949,0.028847119199672238,0.12848299633791582,0.11633341057059705
482,1456703949844720,0.03773063559973054,0.11638044338503711,0.11777915311506307
483,1456703949860941,0.05076627327469035,0.111591045860033,0.12041019546923687
484,1456703949883910,0.062385451659429714,0.11016310924205522,0.11927498878758731
485,1456703949904905,0.06919257359463489,0.10697163774605528,0.11254081433819452
486,1456703949920902,0.07005840170346082,0.09831987149561143,0.10143685001096706
487,1456703949942987,0.06577603979072931,0.08345881936196266,0.08867985363381001
488,1456703949964266,0.058389649904955786,0.06458276221535769,0.07672287907624543
489,1456703949981266,0.05032696175777366,0.04559208828506701,0.06687777024338316
490,1456703950002603,0.043591942989514264,0.03034356542924322,0.05946273965330847
491,1456703950032338,0.039286494465740306,0.021157908464750512,0.05443038118218534
492,1456703950041300,0.03755515508306059,0.018149109129763644,0.0518457495858543
493,1456703950062273,0.0378376686976515,0.019598366567408605,0.05193436368968216
494,1456703950084191,0.03923139503033421,0.023186195316916423,0.05481318472635598
495,1456703950100972,0.04081617217263829,0.027515344335640124,0.060192131362618057
496,1456703950122184,0.041889540945328166,0.033163116756542266,0.06727868103638882
497,1456703950144488,0.04212061856285385,0.042656379638512466,0.07498503159503185
498,1456703950168990,0.041634062304373796,0.05927785841246788,0.08241326118951027
499,1456703950181990,0.04100868113676688,0.08522922365927785,0.08942420306642089
500,1456703950204205,0.041156440595379824,0.12001067120047981,0.0969087284681062
501,1456703950219992,0.0430677118646866,0.15975994062368037,0.10640836221082595
502,1456703950242503,0.047475182882346686,0.19788053247267715,0.11910584903506016
503,1456703950282008,0.05455523827310441,0.22681084723634146,0.13467374247217612
504,1456703950287239,0.06378874910229236,0.24036748161695334,0.15063919602091452
505,1456703950309223,0.0740319510231756,0.2358350034852881,0.16268416455078144
506,1456703950324224,0.08373723697717067,0.21500275907672836,0.16586547852382807
507,1456703950347023,0.09119794149872086,0.18371602481745875,0.15637943141616614
508,1456703950362024,0.09477922686205523,0.15008340835668657,0.13330907226529673
509,1456703950385026,0.09327222540368495,0.12201639023137764,0.09973694903455244
510,1456703950407330,0.08649531076773813,0.1050403943396969,0.06271415570271997
511,1456703950423028,0.07598182035164555,0.10117821405764474,0.03193205084630437
512,1456703950444539,0.06535408958876958,0.10918294981194279,0.01740279774589449
513,1456703950467851,0.0600575869995035,0.12573482635250882,0.02673841980000816
514,1456703950482837,0.06635724952640323,0.1468323348916017,0.06271238786105196
515,1456703950504854,0.08962678744453632,0.16877297049308074,0.12187088459630994
516,1456703950527833,0.13210619563407808,0.1886686973116528,0.19493899106460247
517,1456703950542852,0.19075202072436037,0.20487918339809505,0.26929202461074747
518,1456703950564575,0.25640356772031675,0.21765503440185538,0.3327975502718371
519,1456703950587861,0.3155337630682447,0.22970705239437164,0.377477415974934
520,1456703950602865,0.35481566046950863,0.2459063120208314,0.40146358999828524
521,1456703950624897,0.3669647733780571,0.27154291888051624,0.4087186764501194
522,1456703950647595,0.35495609070480916,0.30964940011692565,0.4071487051694939
523,1456703950662596,0.33194056131417,0.35896311021264743,0.4061062612679605
524,1456703950684897,0.3162341086709934,0.41389431616052785,0.4137480854167509
525,1456703950707863,0.32343026178719964,0.4662833860799806,0.43420030579449365
526,1456703950722861,0.3592584532451043,0.5074600067494897,0.46503185198800007
527,1456703950744609,0.4165163799184419,0.5296761121604466,0.49673853638603305
528,1456703950767618,0.4776592802747152,0.5274266027704263,0.5158826628286027
529,1456703950784619,0.522100163699086,0.4992533605447515,0.5112147791721388
530,1456703950804620,0.5348719437491074,0.44917300072625255,0.4793486929932393
531,1456703950834604,0.5125010820846456,0.3861123410220195,0.4262731623536683
532,1456703950844889,0.46351639998441396,0.3210121829446677,0.36379938961597313
533,1456703950863897,0.40384481421379603,0.2631746128763822,0.3036016647007206
534,1456703950887899,0.34966555357147117,0.21791271959829475,0.25283411161844943
535,1456703950903898,0.3112049096230727,0.18636075840249303,0.2135056192493254
536,1456703950924900,0.2901642835475156,0.16680063183979377,0.1847014935549478
537,1456703950946913,0.28128607169235975,0.1562888921679503,0.1650795461353057
538,1456703950963923,0.2763516367935849,0.15177923225524698,0.15385127585393357
539,1456703950985925,0.26812686773399497,0.15062704062870524,0.15032432176054847
540,1456703951007924,0.2525599494846745,0.15078320153573752,0.1531429306445903
541,1456703951023925,0.22894803825313773,0.15099781135326287,0.16009630633182573
542,1456703951044437,0.19884992016180203,0.15104175838627795,0.16855459363473416
543,1456703951066947,0.1648055119834286,0.15163457689882923,0.17610280729363198
544,1456703951083946,0.12955702558139692,0.15385944633348395,0.18097920170192017
545,1456703951104948,0.09583865927620838,0.15830128983972858,0.18219908538626092
546,1456703951127949,0.06635148640633994,0.16442579343566227,0.17946130736782148
547,1456703951144491,0.043552469482589645,0.17054441887886274,0.17299565211830906
548,1456703951163974,0.029220893082148314,0.1743413221275159,0.16342696243643612
549,1456703951186970,0.024026748480191665,0.17368421211842547,0.1515897693358867
550,1456703951203971,0.02732688241587525,0.1673594875957472,0.13821656904524912
551,1456703951223977,0.03725744212471922,0.15543471556514954,0.12364067054845568
552,1456703951246988,0.05104301178286532,0.1391514450445117,0.10785220906243335
553,1456703951269003,0.06540227580046398,0.12049603706616455,0.09107156964051781
554,1456703951284194,0.07699673377782913,0.10172044531173723,0.07451892024636667
555,1456703951307192,0.08295987455867705,0.0850224526482034,0.060736654731698494
556,1456703951324003,0.08154632502623098,0.07242995753728129,0.05302667930824865
557,1456703951344741,0.0727878568127961,0.06578980262745011,0.054183745595851644
558,1456703951367029,0.05882282531299007,0.06672523359289217,0.06525732646198651
559,1456703951384024,0.04352983009623023,0.07651128393822361,0.08511388251123908
560,1456703951405361,0.03140345896844177,0.09591549229578393,0.11106669186799296
561,1456703951427329,0.026058509689489154,0.12502973087998873,0.1401698685827453
562,1456703951443539,0.028971832428803176,0.1630261701882606,0.17037749255714
563,1456703951464049,0.03895234721498821,0.20778897334544755,0.20085531707444093
564,1456703951488048,0.0525340736591667,0.2555362394280382,0.2312336011438972
565,1456703951509330,0.06517116152318687,0.3006914672146123,0.26023899167370074
566,1456703951524336,0.07282991179900392,0.33628796431519986,0.2845842152643019
567,1456703951547065,0.07339084960391352,0.35513546121987766,0.29896267894742223
568,1456703951569073,0.06730739296870179,0.35183962579526334,0.2974919274755973
569,1456703951584293,0.05725701297308822,0.3254267988234268,0.2762393629516152
570,1456703951607306,0.046965570804503344,0.28176671516091717,0.2358982273114854
571,1456703951629288,0.03977301900598073,0.23445994587893113,0.18349567666422215
572,1456703951644830,0.03761187229425569,0.2028384606110066,0.13224204029072115
573,1456703951667106,0.040809350202360054,0.20660460195490724,0.0991706950903309
574,1456703951698107,0.04865209577233047,0.25831202370295403,0.10091152723710581
575,1456703951704388,0.06023693051792537,0.3566103956826217,0.1486125617728184
576,1456703951727438,0.07499292241621613,0.4837698117805358,0.24352025865403346
577,1456703951743628,0.09250970216310848,0.6096514615911618,0.3748672087260744
578,1456703951766138,0.11187002500564715,0.701357111967832,0.5212668306477302
579,1456703951787474,0.13120246709904143,0.7348742934718171,0.6557308316752616
580,1456703951809427,0.14817033172811417,0.7038936139354399,0.75305724496067
581,1456703951832853,0.16147273973452292,0.6222059990250819,0.7972767580159824
582,1456703951847156,0.1725837709960358,0.5188794205558036,0.7866122886659628
583,1456703951869165,0.18650023672781274,0.4283506248943418,0.7341896374532599
584,1456703951886399,0.2105114158415853,0.3793876996565022,0.6641452214269608
585,1456703951907427,0.25087695060384024,0.38682396249075024,0.6041031826421502
586,1456703951930168,0.30852695255942103,0.4482453253591012,0.5760867017955138
587,1456703951946180,0.3760052672620738,0.5457637099516666,0.5890155487088479
588,1456703951967190,0.43807317909564075,0.6518084857146259,0.6361674326692435
589,1456703951989196,0.47688534254638754,0.7372339547880727,0.698892106354939
590,1456703952006191,0.47973181776625173,0.7792741921079025,0.754260585669143
591,1456703952027490,0.4450901307232065,0.7666358868662416,0.7824237789865164
592,1456703952050218,0.3834271003917074,0.7004123433685273,0.7710032464782998
593,1456703952066212,0.3125030184825152,0.5918289992289311,0.7168165780095132
594,1456703952087569,0.25004106610667404,0.4589581777183358,0.6263941555324437
595,1456703952111226,0.20746566372663136,0.3235866592851648,0.5154038245511708
596,1456703952126215,0.18723391577640386,0.2078682513483312,0.4056342819821328
597,1456703952147227,0.18423931312593483,0.13016822350516571,0.31893988107220017
598,1456703952170237,0.1898363906071869,0.10069970265934083,0.2700395488446978
599,1456703952186467,0.196061294650788,0.11864372553862512,0.2616764465436194
600,1456703952207449,0.19803671405226028,0.17228586509092617,0.2846680079582474
601,1456703952229238,0.19400602683180157,0.24250314607807927,0.3225915534729336
602,1456703952254466,0.18396670818250319,0.30852674019464155,0.35839902969961
603,1456703952267474,0.16843635755216607,0.35392423951464375,0.379720574626224
604,1456703952290734,0.148203314420459,0.37059823628781385,0.38104107123505565
605,1456703952306739,0.12476039021466044,0.3594578581196105,0.3629897600180196
606,1456703952327740,0.10057171927832076,0.3279262164912903,0.33016561613100776
607,1456703952349490,0.07868349139395779,0.2857859956400562,0.28882370481370656
608,1456703952366493,0.06184946597253318,0.24135662494872276,0.24508502381426503
609,1456703952387833,0.051659271060066625,0.1995021460523212,0.20386204795405866
610,1456703952410760,0.04807577417278584,0.16184511974332627,0.16849762114452543
611,1456703952426494,0.04954862979326152,0.128442794340224,0.14094971175196738
612,1456703952447507,0.05362291120120555,0.09967450861198489,0.12222787000309186
613,1456703952470516,0.05777912592705312,0.07735689968381516,0.11284980463768396
614,1456703952486516,0.060191331081838856,0.06475945692041908,0.11323153229087998
615,1456703952507834,0.060177299302127965,0.0657460382765718,0.12394323027442564
616,1456703952531519,0.05825513333173769,0.08353509197577126,0.14569783470393025
617,1456703952545528,0.05582103254917881,0.11958741785154503,0.17896568966408677
618,1456703952567538,0.05452319736245643,0.17294158549550973,0.22325951621836135
619,1456703952590868,0.0554979632106549,0.24002407374887408,0.2763059442635058
620,1456703952606540,0.05875957893420108,0.3147574408812688,0.33341057560230064
621,1456703952627832,0.06308070884255053,0.38882048790091683,0.38733070659190416
622,1456703952649560,0.06653726587749455,0.4521567080055463,0.42895582711137714
623,1456703952666561,0.06752243386666602,0.49410209507031766,0.4490173806867299
624,1456703952689562,0.06568596011599141,0.5055502839672934,0.440760237135165
625,1456703952710820,0.062246292277795136,0.4821834640204387,0.4030212888800106
626,1456703952726564,0.059529033707952816,0.42800056653102997,0.3427300691157891
627,1456703952749581,0.060084143833114875,0.3575377759667549,0.27570328253812776
628,1456703952770582,0.06593982582644142,0.2948787286195143,0.22477382563898732
629,1456703952786583,0.07838912450966438,0.26827985142360045,0.21479137985352714
630,1456703952809585,0.09833133131137047,0.30106939527629045,0.2650298821289136
631,1456703952830587,0.12674375273740174,0.40179250540556566,0.38100777362823557
632,1456703952846595,0.16455337485333815,0.5579894413543178,0.5489797145440148
633,1456703952868827,0.21140059201339395,0.737167033134392,0.7363235074893978
634,1456703952890604,0.26369399149949213,0.8955294927703364,0.8991812045454787
635,1456703952912604,0.3134126805481022,0.9916156418205844,0.9956389329974801
636,1456703952936588,0.3493598147145861,1.0,1.0
637,1456703952950839,0.36141970931570955,0.920232891336737,0.9128052582744726
638,1456703952973841,0.3462571834648725,0.7778364185328193,0.7625791274496297
639,1456703952987841,0.3112706656040382,0.6168780025106491,0.598081646445399
640,1456703953010843,0.2739281336034903,0.48657686486162366,0.47308738682914425
641,1456703953032851,0.25594465723791443,0.4263544774297465,0.42853386911818486
642,1456703953048862,0.2745619534808603,0.4539755007515295,0.47831427377779034
643,1456703953069868,0.3347415630626577,0.5602921363760056,0.6041558834850337
644,1456703953092862,0.4258504264023833,0.7122785168535355,0.7619605424883771
645,1456703953108863,0.5247645512656005,0.8636103608464186,0.8976163279906524
646,1456703953129867,0.6045828187802215,0.9691888828773005,0.966107959177816
647,1456703953151890,0.6451371275863608,0.9981496765218155,0.9459782228499571
648,1456703953168884,0.6402115121474078,0.9408001524186104,0.8435776783232585
649,1456703953190885,0.5982761526751478,0.8083367528564684,0.6869342235301068
650,1456703953219889,0.5372225835314205,0.627462518170467,0.5137485908267456
651,1456703953228889,0.4762791552860812,0.4328418736165961,0.3592140982801397
652,1456703953249948,0.428853959288535,0.2591798659017396,0.2474993596954077
653,1456703953271906,0.39901888069504143,0.1338219262071795,0.18810986034559973
654,1456703953288907,0.3823757492449142,0.07106453229286126,0.1766227643210936
655,1456703953310168,0.36997975824629853,0.06974126674717077,0.19861960247813037
656,1456703953332129,0.35295493705080483,0.11500360022439167,0.23542148303991217
657,1456703953349145,0.3258214332642689,0.1837902798332328,0.2700215364625974
658,1456703953370147,0.2877409556788682,0.25212260950806986,0.29148900071071265
659,1456703953392409,0.24195718323023482,0.3017009240771678,0.2965508669322596
660,1456703953409147,0.19415652993593566,0.3236763344276237,0.2882363746133937
661,1456703953430150,0.15043863726241877,0.3188421368935091,0.2727841287075987
662,1456703953452585,0.1154746634966519,0.29500730946645964,0.2565163459233834
663,1456703953468733,0.09138334582607165,0.26305067707407276,0.24381898889152376
664,1456703953489729,0.07767494055300693,0.23302269699429262,0.2363932197126658
665,1456703953512607,0.0721546297770898,0.2112496272172234,0.23337678275023868
666,1456703953528729,0.0721709193340884,0.19904114707275294,0.2319649581704891
667,1456703953551523,0.07546946364438871,0.1931963376159222,0.2284019519220481
668,1456703953572524,0.08029965748403817,0.18799415894760604,0.21925060191790108
669,1456703953588525,0.08501588084855385,0.1779057385405208,0.20261416544695782
670,1456703953610757,0.08776799005750484,0.16000501317389243,0.17879102653163578
671,1456703953640535,0.08674065193492558,0.13509566309711754,0.15007250610970727
672,1456703953648536,0.08091260354735856,0.10709979049546603,0.11995791692086537
673,1456703953671546,0.07083864286293456,0.08116879202417207,0.09235973834031383
674,1456703953692755,0.05883355417752349,0.06166141992779435,0.0710742356334192
675,1456703953708725,0.04826582966059037,0.0510154985103414,0.05934075946215543
676,1456703953731714,0.042249476662334515,0.049786047380547656,0.05928207755012161
677,1456703953752775,0.04242342707366789,0.05741981143325107,0.0713462149427898
678,1456703953768776,0.04843347522524278,0.07310509002903409,0.09409783639112956
679,1456703953791777,0.058270502881716535,0.0962036657297069,0.12461930652025212
680,1456703953812779,0.06911662611327891,0.1261329675301093,0.15947311950267176
681,1456703953828779,0.0781577772331964,0.16193967596512315,0.19582064168056082
682,1456703953850715,0.08305484009184663,0.20195740154631947,0.23210984177770894
683,1456703953872750,0.08216543774332537,0.2437626465446869,0.2679218903074045
684,1456703953888721,0.07476986127599408,0.2843433745437002,0.3030142187256328
685,1456703953918720,0.06139221492144772,0.32026664628912793,0.3360194471231119
686,1456703953931722,0.044100879725577226,0.34774633705551544,0.36347197007412574
687,1456703953948231,0.026624895206959518,0.36276055526486145,0.37981848841772625
688,1456703953970740,0.01414661490547385,0.3615991892131331,0.37879551849724524
689,1456703953991748,0.012620714638477514,0.3422073356355677,0.35601720401159864
690,1456703954007743,0.027518044666548357,0.3062233509576473,0.3119934229585371
691,1456703954030757,0.06211969823195828,0.26084559408663893,0.25438139529652104
692,1456703954053762,0.1158237444502805,0.21917440214551168,0.19822801159787787
693,1456703954067816,0.1831668581458581,0.19796648419796375,0.16334414647648404
694,1456703954090765,0.2542424150689049,0.21278987896756293,0.16885132963909602
695,1456703954112771,0.3168436731072161,0.27194324195727787,0.22627658866001285
696,1456703954128765,0.35993356830644047,0.37159366938988103,0.3338066389969514
697,1456703954151070,0.37712753451357556,0.4946736570486866,0.4745793991896554
698,1456703954172075,0.36848144068487326,0.6147036186278335,0.6205502135525076
699,1456703954195335,0.33966989701942446,0.7033995385274499,0.740863692980573
700,1456703954211072,0.29915421230868233,0.7391668922545972,0.8113953730702242
701,1456703954232134,0.25493151690667704,0.7135035541876468,0.8218446141546712
702,1456703954255130,0.2124381242154008,0.633581193399366,0.7783219036344049
703,1456703954271094,0.17451514563320017,0.5206118994770338,0.701177882665802
704,1456703954292319,0.14323047231672034,0.40445185915005866,0.6189571656296
705,1456703954315289,0.12207000287475873,0.3156389149538325,0.560166053666617
706,1456703954331347,0.11655492109270076,0.27696031010744526,0.5451459271551009
707,1456703954360455,0.13240145431427466,0.297128037689343,0.5802156111261252
708,1456703954375161,0.17215538775950645,0.3685813576826623,0.6554834124541767
709,1456703954391140,0.23237776643621044,0.47011453577649626,0.7471855327270596
710,1456703954412422,0.3032747840547441,0.5736129269920142,0.8248641956603976
711,1456703954435476,0.3714063690699412,0.6527917628186334,0.8618343218043013
712,1456703954450987,0.42435594362501233,0.6906461486924472,0.8446888162121714
713,1456703954473987,0.4549274111622876,0.6825016715542228,0.7769897875538374
714,1456703954495251,0.4626629790426732,0.6339463415306524,0.6753924886193375
715,1456703954510989,0.45226010092203417,0.5560642986167152,0.5610303486344633
716,1456703954531996,0.43032085528383196,0.4614812376743684,0.45138254515594634
717,1456703954555041,0.4024959287510137,0.36285932716294794,0.35654536271151394
718,1456703954571037,0.37244592460763914,0.27277278297179874,0.2803336926140093
719,1456703954594004,0.34266125559593846,0.20302135940027685,0.22372537389811764
720,1456703954615005,0.3158772535549106,0.16271247272354214,0.18762635754979656
721,1456703954631200,0.29557359218853024,0.1560303996499112,0.17342921742228007
722,1456703954654226,0.28496281677370705,0.18099020002777064,0.1816617921962345
723,1456703954675509,0.28507673216285945,0.22975077886556688,0.20999945560390476
724,1456703954691504,0.2932812041252821,0.29022362867820023,0.2520580593252675
725,1456703954714231,0.3034503028985092,0.34846993743007665,0.2979646422285994
726,1456703954735786,0.3080831328581972,0.3915637036397052,0.3367296480067387
727,1456703954751542,0.30139406512672146,0.41048919311302884,0.3593137862413548
728,1456703954774542,0.2817285179006215,0.4021505894093841,0.36090159894980467
729,1456703954795791,0.25203834590711566,0.3695616311419536,0.34158012958560763
730,1456703954811544,0.21831580839826129,0.3201603708660936,0.3055864986892607
731,1456703954834303,0.18698152230541834,0.263156874754152,0.2597162780065128
732,1456703954855546,0.16255012403877142,0.207031822717224,0.21143903237405826
733,1456703954871215,0.14649430416333015,0.15788813310140756,0.16716934392252422
734,1456703954894181,0.13753309952683207,0.11887921221424065,0.13107724228477424
735,1456703954915487,0.13290972953630859,0.09060195955693577,0.10468895665662589
736,1456703954931184,0.12984913406319396,0.07206480354692006,0.08732736507296764
737,1456703954954222,0.1264908821750956,0.061689174580032244,0.0771963454381508
738,1456703954975223,0.12207143083870522,0.057968486109663986,0.07264032543034986
739,1456703954991485,0.11659791405272527,0.05978471819793488,0.07297339356247097
740,1456703955014227,0.11042581474453757,0.0665658036326148,0.07849680270381384
741,1456703955035748,0.10402649437737371,0.07831999221604136,0.08983445358554251
742,1456703955051029,0.09795548885673841,0.09543235622993144,0.10710624653389372
743,1456703955074030,0.09279820982859448,0.11821193366608257,0.12944932451134306
744,1456703955095292,0.08889074264046459,0.1463809787964357,0.15509782714956627
745,1456703955111030,0.08591466711029758,0.17875898800247583,0.18188759564756268
746,1456703955134678,0.08273802255740188,0.2132751009023017,0.20781296826271298
747,1456703955155559,0.07780537235957903,0.24721717972494164,0.2312455039783995
748,1456703955171503,0.070024334329469,0.27744753065247424,0.25068544230160333
749,1456703955194534,0.05975091740445638,0.30041386122305025,0.2642979269815839
750,1456703955215308,0.04933413355157985,0.31218043762278574,0.2697086031989213
751,1456703955231507,0.04278262995142749,0.3090194108679932,0.2644568037350233
752,1456703955253713,0.044453931844995236,0.28891269086987875,0.2471784916989868
753,1456703955275713,0.0571314598554759,0.2536302355006438,0.2191491425801802
754,1456703955291714,0.08023183524549926,0.21030084749239783,0.18545168042605453
755,1456703955314717,0.10900591356042467,0.17110030403814191,0.15496279799115553
756,1456703955335736,0.1353687791828368,0.1502365280730743,0.13867176090862518
757,1456703955351245,0.15037731558587022,0.1588097317369895,0.14648253253793775
758,1456703955373284,0.14755834714548174,0.1996956334432303,0.18341792926837053
759,1456703955395614,0.12575665692079624,0.2652317203019118,0.24674807898146114
760,1456703955411248,0.0903090577308041,0.3394433695361762,0.32558337711580615
761,1456703955433250,0.0520598911289623,0.40415811261085216,0.40360975215638906
762,1456703955455772,0.024541792322150993,0.4460190059901471,0.4641689894526948
763,1456703955470739,0.020146907114884125,0.4607749798232521,0.49568345189561885
764,1456703955492558,0.046278592839731146,0.4529180078144999,0.4953083152437325
765,1456703955515703,0.10253883438606408,0.4316396423386012,0.4696155425865048
766,1456703955537547,0.18003315823059698,0.40614607298485755,0.4323106126582193
767,1456703955552791,0.2635395618842533,0.3832502122941465,0.39988554106021384
768,1456703955575790,0.33624614775264244,0.36804775060463785,0.3866506028313783
769,1456703955597792,0.38524217325405474,0.36582489239006377,0.4006537386829796
770,1456703955612792,0.4050326943238936,0.3821273439775995,0.4413719553549509
771,1456703955637607,0.3972994930210504,0.4194840703554882,0.49922920763978185
772,1456703955656912,0.3677385208682839,0.47268253744467975,0.5570256769258681
773,1456703955672907,0.32279218364677714,0.5266902629227057,0.5940560823143974
774,1456703955695909,0.26842028624275704,0.5601330444372374,0.5931364266621997
775,1456703955717125,0.2105902866462966,0.5535813289674529,0.5481981095328926
776,1456703955732912,0.15571341544151446,0.49853486797727536,0.46799802498519316
777,1456703955756733,0.10999189282149806,0.40215907693798586,0.3728292350686879
778,1456703955777734,0.07811741008283542,0.28504767840941936,0.28549626401301176
779,1456703955792735,0.0623210820977744,0.1731991465864469,0.22161450124373422
780,1456703955815737,0.062354173389351016,0.08840454457548783,0.18447519777921145
781,1456703955837700,0.07627372543443052,0.041469861147194934,0.16653681256622507
782,1456703955860042,0.10136595016274715,0.03053137984141309,0.15567298334103266
783,1456703955876036,0.13448924239469995,0.04410141707454272,0.14212660832752416
784,1456703955897039,0.1717142948542263,0.06686887212695491,0.12261146682811742
785,1456703955913040,0.20791023449556542,0.08581953371774349,0.10033428001023038
786,1456703955936656,0.23709518800538498,0.094500680289895,0.08206789019677525
787,1456703955957345,0.2537597608462394,0.09405829602295838,0.07442314595580572
788,1456703955973345,0.2545914691627028,0.09099035696269628,0.08106097073493568
789,1456703955996347,0.23974566148978532,0.09296262023964762,0.10154551364151969
790,1456703956017355,0.213080831880341,0.10478751363589393,0.13168672514233096
791,1456703956033349,0.18122030618353271,0.12633922195213615,0.16489343765396106
792,1456703956056173,0.15173089827000572,0.15298114744503374,0.19405503833623552
793,1456703956077475,0.1311087482664484,0.17773938379623064,0.21344545380313895
794,1456703956093176,0.1233440154023978,0.1938164480372321,0.2200507500618778
795,1456703956116176,0.12938682119170775,0.19643407215135264,0.21383421452943857
796,1456703956139469,0.1472803021934005,0.18382332057486742,0.19694747174041655
797,1456703956153477,0.17262075320152648,0.15754711782876668,0.17248285902841334
798,1456703956176648,0.19929708841347082,0.12213456165774564,0.1435176925992554
799,1456703956196479,0.22066848042522952,0.08390234886791015,0.11279421155344402
800,1456703956212606,0.2311511464176995,0.04922417405874171,0.08283517946823077
801,1456703956236223,0.22774266329304688,0.022957483084000835,0.05609605687331998
802,1456703956256741,0.21078140585437752,0.007674122848433635,0.034943576224284824
803,1456703956272734,0.1835668856617536,0.0038017428818854534,0.021496794152146725
804,1456703956296737,0.1511251159341898,0.010263944937230334,0.017414435279279123
805,1456703956317736,0.11877453640216061,0.025061703284245066,0.02361783078837584
806,1456703956332738,0.0909837932023412,0.04545966111001106,0.0398942946936843
807,1456703956355674,0.07065788435326362,0.06784401149730687,0.06442670598863934
808,1456703956377544,0.05879819092039296,0.08767469438868435,0.09349012792873845
809,1456703956392713,0.05447655938165368,0.10002570328031951,0.12169855529454467
810,1456703956416545,0.055144742863805885,0.10088218572842722,0.14310920264693827
811,1456703956437629,0.057372631907463514,0.08882884188327796,0.15309941536908858
812,1456703956452847,0.058054134961284455,0.06640443795173855,0.15031324988437345
813,1456703956475850,0.05586961436754013,0.04041258690149747,0.13755162643097382
814,1456703956498850,0.052428760099354495,0.02075541729215993,0.1208007007803577
815,1456703956512851,0.05231616888149678,0.017772429695238175,0.1066793352872714
816,1456703956536361,0.061560456735935576,0.038632400604968954,0.09963915705774495
817,1456703956558870,0.08486226945710702,0.08393185470871722,0.10037323964024314
818,1456703956579870,0.12277895220689727,0.1459875515601227,0.10604908026857199
819,1456703956595871,0.17037935878877747,0.2100685288860426,0.11197489009197496
820,1456703956618872,0.21835014507900177,0.258825675925691,0.1138114564341978
821,1456703956632873,0.2562799774467323,0.2785964108549751,0.10943294532767807
822,1456703956656185,0.2765061843687751,0.26488839514007156,0.09974068735438751
823,1456703956679186,0.27648917436588005,0.2243177638710992,0.08813200064488806
824,1456703956693187,0.2586910201268822,0.17194226268851637,0.07891654060941354
825,1456703956716188,0.2285721679404105,0.1252579286670193,0.07543850346778991
826,1456703956739483,0.19220249134031098,0.0976136221944746,0.07871670207145764
827,1456703956760326,0.15466638989986964,0.09376349076266785,0.08712340289178408
828,1456703956775992,0.11958067037707133,0.10909495767480752,0.0971969544868251
829,1456703956798997,0.089361839775561,0.1324676705078075,0.10524702049900232
830,1456703956820358,0.06565183787017723,0.15118574198846815,0.1090575583054555
831,1456703956836662,0.04949661626488564,0.15589688439053076,0.10886270452446102
832,1456703956859014,0.041226695565769515,0.14347990086993917,0.10702196845266353
833,1456703956880014,0.040234502487603074,0.1171015887303752,0.10647773016948808
834,1456703956896015,0.044880318779341406,0.08396544729069834,0.10884397538263427
835,1456703956919016,0.05266052942394354,0.05212321343922095,0.11329992700500352
836,1456703956940536,0.06065248367518618,0.02775105799845213,0.11698782892715932
837,1456703956956046,0.06616788021874227,0.013710997524022014,0.11661723570156564
838,1456703956979048,0.06747000890900039,0.009507406492810826,0.11022504882201103
839,1456703957000316,0.06430872116983041,0.012270939550755686,0.09807523794460175
840,1456703957016276,0.05798461518181548,0.018214637255593993,0.0823557582341441
841,1456703957039533,0.050797653778976076,0.024008977630015756,0.0660682608925449
842,1456703957060581,0.04505592432881499,0.027655808607208482,0.051840032079938085
843,1456703957076527,0.042119641934288216,0.028681221354447665,0.04122213914271065
844,1456703957106284,0.041982758351285954,0.02774164181700877,0.034621562482228904
845,1456703957120621,0.043576139225487205,0.02594408499098942,0.03167734152492135
846,1456703957136286,0.04553503274147892,0.024242843586366285,0.03177040950001052
847,1456703957159309,0.046949461756655354,0.023160349772522165,0.03441103176195855
848,1456703957180325,0.047734190995074297,0.02284682703787484,0.03938701067973556
849,1456703957196313,0.048529180977330104,0.02329169916682675,0.04667626826618046
850,1456703957219312,0.05023620608339433,0.024461440142340325,0.056168374559602184
851,1456703957240699,0.05337851696654735,0.0262602110666257,0.06726598332015442
852,1456703957256137,0.05752592239790511,0.02837436101858741,0.07853633617356769
853,1456703957278137,0.06106741003187092,0.03015398987487909,0.08768595888817159
854,1456703957300180,0.061549658673586964,0.030668466465156967,0.09205620280971108
855,1456703957316174,0.05656164092230458,0.02897974972908187,0.08953047502917573
856,1456703957338356,0.044812643115053535,0.024550539624652166,0.07942224871906885
857,1456703957360395,0.026872580189656995,0.01759274109762904,0.06288269264077619
858,1456703957376580,0.005196775715152681,0.009142313287893113,0.04266979543484407
