,timestamp,x,y,z,w
0,1456703940183118,0.07244876471152802,0.008252286037854667,0.030000396166770502,0.060015399276433144
1,1456703940199117,0.09116018786395173,0.011295530411703655,0.041852938911419266,0.07002393003712407
2,1456703940221663,0.1056776577053342,0.013692586726529102,0.05296743053513968,0.07655792797675194
3,1456703940245138,0.11321742938253979,0.014939635699327923,0.06290117317984889,0.07738891880090237
4,1456703940260138,0.11323867432606637,0.014827492584839294,0.07165475689338462,0.07218992037586562
5,1456703940281140,0.10734115324890967,0.013499147424569903,0.0794967907652333,0.062483426094906556
6,1456703940306173,0.09831631899693823,0.011425502531140714,0.08657160821430404,0.050880712126537386
7,1456703940359613,0.0887910980114267,0.009314096161846667,0.092494627967686,0.03995683055997591
8,1456703940360368,0.08011272013946742,0.007974241043976432,0.09620503643462554,0.03127904698271321
9,1456703940368561,0.07203523064631942,0.008155302155263017,0.09628846014576548,0.025031165783498437
10,1456703940383399,0.06339080960268222,0.01037328092485309,0.09176111828482567,0.02038220753327
11,1456703940402364,0.05340440992298111,0.014756201133777009,0.08298341693803023,0.016374151511289015
12,1456703940425885,0.042906847585501444,0.02095697688271708,0.07216677037917525,0.012837611002743488
13,1456703940440425,0.034703168586262996,0.02818202142495313,0.0630752533841367,0.010838820924626265
14,1456703940486604,0.03281068133643522,0.03535476697717981,0.05997831709141734,0.012411233931779009
15,1456703940489394,0.040911311534483186,0.04138189312272792,0.06636939569333486,0.019668767357574748
16,1456703940506463,0.06077466318672514,0.045439433573995935,0.08407444559613819,0.03367428277739594
17,1456703940522135,0.09139476103517344,0.04717514994430648,0.1130511400100829,0.05356795620101443
18,1456703940544407,0.1292038356013632,0.04674986191032961,0.1516915307585565,0.07639776540224671
19,1456703940566408,0.1692092150192592,0.044706996509632904,0.19717107405192438,0.09782541275296854
20,1456703940582411,0.20650583959605515,0.041733311154468315,0.24550970549634887,0.11350912031273543
21,1456703940604653,0.2375119098569679,0.03841404929158231,0.29139741962604276,0.1206740270329541
22,1456703940626917,0.26045527064903184,0.03507753947237171,0.3282169903520175,0.11928075820419946
23,1456703940641459,0.2749889909964727,0.03178174378140476,0.34884413600044095,0.11228892502289428
24,1456703940664664,0.2812220480392831,0.028438616066930274,0.34759606571560203,0.10477743854141561
25,1456703940687636,0.2787964227212034,0.025021379644529215,0.32311488677744554,0.10212107160731618
26,1456703940701427,0.2667318531441644,0.02177743358512406,0.2811771256377318,0.10788773535799452
27,1456703940724958,0.24440957856197756,0.01937577905172123,0.23582566415560982,0.12233207448160242
28,1456703940746958,0.21332691743872037,0.01891976653186279,0.2073379560643156,0.14212928975750638
29,1456703940762155,0.1785219591438887,0.021742924498141917,0.2166415042883154,0.16142389853516348
30,1456703940784124,0.148406094892775,0.028938830001650803,0.27756848861794636,0.17371299459593553
31,1456703940807128,0.13246442113710052,0.0407189407682348,0.38990769928221625,0.17386560366279732
32,1456703940821906,0.13758624716024598,0.05588588656634452,0.5365097378890235,0.15973053815424879
33,1456703940843190,0.16483357494633738,0.07178245545803931,0.6863296433736449,0.1330541582832314
34,1456703940867190,0.20846713964874056,0.08491226799553295,0.8029183948879077,0.09956931966566371
35,1456703940881200,0.25791497016280973,0.09209756647395421,0.8557087578187361,0.06814145336923531
36,1456703940903193,0.30174294894723847,0.09174767961059033,0.8303480433278922,0.04896920824647925
37,1456703940926705,0.3315951765298483,0.08472451104120853,0.7345285177344144,0.05112572910058962
38,1456703940941205,0.34427001033100796,0.07442170402981939,0.597062422379157,0.08006855359142584
39,1456703940963206,0.3414531792258569,0.06592554449636347,0.4599781944560138,0.13595426010250405
40,1456703940986207,0.3280616670831847,0.06441582710274445,0.3657161669192444,0.21348309991372455
41,1456703941002209,0.3105297011083144,0.07326462605849035,0.3434777729030075,0.3034307591487055
42,1456703941023959,0.29560062390440883,0.09252508948189431,0.39960798435480727,0.39517603400708073
43,1456703941046220,0.2892294290392357,0.11849082882905408,0.5157602791953093,0.47897404215780653
44,1456703941061220,0.29500238514551314,0.14463318755788923,0.6555536212171005,0.5469473799314671
45,1456703941083221,0.31217946674918234,0.16365146315547208,0.776939322605207,0.5927188599524305
46,1456703941106222,0.33445741777348686,0.16994354891569138,0.845529087614577,0.6107243508331227
47,1456703941122729,0.3509790662999169,0.16171131564753943,0.8444996510755449,0.5967466907576779
48,1456703941143235,0.35037493587303187,0.1420606541487554,0.7785153737434569,0.5505085372675111
49,1456703941166236,0.3268610332839883,0.11866669133084408,0.6710429344075279,0.47940579947975137
50,1456703941182237,0.28564468738743826,0.10183825011752749,0.5559514981902015,0.40079473522717973
51,1456703941203238,0.24437097925906134,0.10125795528972849,0.4657297385579008,0.3400940982553747
52,1456703941226745,0.22868674092427957,0.12230146296551789,0.42012737892533364,0.32385364545658424
53,1456703941242251,0.26275270480434765,0.16334598891684746,0.4196694747115005,0.3699257885730909
54,1456703941263252,0.3583753014022792,0.2154089390771707,0.44703908644254153,0.4790747707721967
55,1456703941286254,0.5077474203048631,0.2646339816369784,0.47576643360016674,0.6322257200595325
56,1456703941302254,0.683582801302596,0.2969054161891229,0.481977314616833,0.7950670665274929
57,1456703941323762,0.8471174552397254,0.302859177349059,0.4536377651886063,0.9283721128803332
58,1456703941346268,0.9607536290168228,0.2812794718151568,0.39355667642343833,1.0
59,1456703941362269,1.0,0.23947023486853491,0.31591340344901725,0.994048598977946
60,1456703941383269,0.9598919052639181,0.19044164352653684,0.23901721995434813,0.9140407963431375
61,1456703941406472,0.8539200099883288,0.1481262733219882,0.17798340461395534,0.779608273968376
62,1456703941423067,0.7071194739422904,0.12268446489945671,0.1401049083545245,0.6187771336107876
63,1456703941443380,0.5474195602021935,0.11780625735799095,0.12398038458348588,0.45950424829058295
64,1456703941466186,0.399255110067604,0.13080922284117397,0.12194703560396955,0.32378547552031356
65,1456703941482182,0.2809919994114075,0.15490785347039443,0.12439889378908896,0.22562430240355213
66,1456703941503183,0.20490175037961716,0.18216515952945012,0.12410296115865455,0.17181271526282055
67,1456703941526934,0.17744939293180392,0.2057695464636237,0.11874385952996057,0.16348204684252096
68,1456703941542397,0.1988034918676037,0.22108123673826202,0.11076554653086965,0.19704390939397698
69,1456703941565400,0.26211681506164103,0.22566917047759377,0.10489352662232487,0.2644200535947136
70,1456703941586737,0.35384954798937324,0.21889091295657886,0.10484679561978584,0.3533510971742246
71,1456703941602402,0.45603828193868434,0.2014897453222385,0.11103586368808332,0.44871790467704015
72,1456703941624002,0.5503361253470452,0.1754283393369184,0.12035293875680131,0.5351651211163129
73,1456703941646024,0.6224171569653651,0.14391706665636378,0.1279655779959346,0.6002334183332758
74,1456703941663025,0.6647852347859458,0.11139208075146993,0.1300326197756776,0.6365446373985146
75,1456703941684185,0.6767572960682033,0.08311884087622766,0.12592107605447433,0.6420327307675935
76,1456703941707186,0.6620489517146269,0.06424453779586843,0.11883739476451408,0.6185189983321172
77,1456703941722552,0.6257632884240729,0.05849076852712127,0.1145588771314122,0.5700097012718847
78,1456703941743064,0.5726152454490263,0.06701512376091667,0.11883646438183942,0.5019955253370901
79,1456703941766063,0.507013926072953,0.08797451794098306,0.1346782231401139,0.42187465632125104
80,1456703941788063,0.43428461440167343,0.11697915402279084,0.16081754208637514,0.3394920959305853
81,1456703941803064,0.36174905732775225,0.14820871499211719,0.19212631553047105,0.26660428067042496
82,1456703941827013,0.29860366509744996,0.1757310196006036,0.2217353771332976,0.21479675942664428
83,1456703941848474,0.25420013507993794,0.19459512787261218,0.24368602627546174,0.19239616256575207
84,1456703941863475,0.23526952992706127,0.2015007408394957,0.25470722604808366,0.20169584751390032
85,1456703941886753,0.24346206013540528,0.1951064088495755,0.25440950427460857,0.23793776974071282
86,1456703941908477,0.2745942675457263,0.1761379972588575,0.24426751494688587,0.2907168264323926
87,1456703941923488,0.3200100447799229,0.14735079916856533,0.22638679030738357,0.34719105882939916
88,1456703941946493,0.36926081930079757,0.11324699734378499,0.20283723140614385,0.39561812807754887
89,1456703941968499,0.4128130975826656,0.0794435853822117,0.17564120227327062,0.4278451709973727
90,1456703941985496,0.4438166105176124,0.05172416686489852,0.14699958817812941,0.44015547516658937
91,1456703942006532,0.45861697171521465,0.034935359706526656,0.11936161222575975,0.4326760670598459
92,1456703942028953,0.45624467491778387,0.03192120624305781,0.09527849668737211,0.4079993943197206
93,1456703942043901,0.4374287432246222,0.04270249578875331,0.07722968215177174,0.36976153255781424
94,1456703942067120,0.4037897813267993,0.06415995591622999,0.06758222525719022,0.3217965051548706
95,1456703942089091,0.3577605053799772,0.09047820740173329,0.06860291366257233,0.2682211774758594
96,1456703942105906,0.30336102790806996,0.11443714043830487,0.08223135322791002,0.21431686599929659
97,1456703942127003,0.24723652992182277,0.12932227855783707,0.1094029354110277,0.16740364387345352
98,1456703942148213,0.19880691339427006,0.1309039858426926,0.1490711178772351,0.13652958576531615
99,1456703942165211,0.16862569516939888,0.11877377754277436,0.19740553199732974,0.13030222224123372
100,1456703942186481,0.16513094397542852,0.09646120374652484,0.2476861537349229,0.15346319408000803
101,1456703942208500,0.1911219717860061,0.07020206512805477,0.29119926094080595,0.20391690021831055
102,1456703942226137,0.24168470494489758,0.046801337799728004,0.31910008032405507,0.2719592557651042
103,1456703942246803,0.3046956395168584,0.0314220143012663,0.3248187582417627,0.34234315435797813
104,1456703942268803,0.363851648419959,0.02612884499072215,0.3062451090791902,0.3983472140201641
105,1456703942285803,0.4031135554836496,0.029666782268018308,0.26682926998472,0.426177426444927
106,1456703942306810,0.4110778072968579,0.03845916690003265,0.21505657787418092,0.4182507644644999
107,1456703942328860,0.3840578542778821,0.04836201173816699,0.16241218921564798,0.3747449197525625
108,1456703942345865,0.32709532549396253,0.05643452298986107,0.12054979695234151,0.3034500693571781
109,1456703942366867,0.25252056658651917,0.06197103441339236,0.09852871022244038,0.2180838257541762
110,1456703942388868,0.17628284690802243,0.06633731605505112,0.10070706330880484,0.13519843533256867
111,1456703942405870,0.11317332204238213,0.07171184328362146,0.12558956000813015,0.0701300592112078
112,1456703942426820,0.07275265179220766,0.07941317633019356,0.165901243390901,0.03305289277297512
113,1456703942448586,0.057562283596308474,0.08874195440941497,0.21016157391575505,0.026510772839893303
114,1456703942465586,0.06401180706168418,0.09697963941089847,0.24567981317716256,0.045388627557401626
115,1456703942486863,0.08501743020699351,0.100539375671927,0.2622474493940632,0.07934510695570286
116,1456703942508802,0.11291343472203444,0.09666109007002228,0.25533843415353324,0.11675614195218827
117,1456703942525848,0.14151407124292742,0.08479003353973005,0.22765481220648898,0.14861422611052075
118,1456703942546805,0.16692658932555265,0.06695938946548592,0.18831223770739225,0.1708402580194383
119,1456703942569030,0.1872947257349709,0.047018297288894347,0.14969973713075033,0.18418947622222268
120,1456703942586030,0.20196626616576088,0.029138607404683433,0.12296533255704978,0.1921011957101202
121,1456703942607059,0.21066459123304446,0.016346613228236974,0.11387518119897667,0.19782607870453403
122,1456703942629215,0.2131014979607701,0.00969611334851231,0.12091679124969162,0.20240047302260938
123,1456703942645693,0.20914530891648564,0.00829150168578498,0.13660087273448307,0.20441506312764154
124,1456703942674733,0.19930818658419075,0.009985587482417029,0.1512960331016577,0.2014266219814057
125,1456703942688667,0.18512116097453446,0.012384758291325454,0.15758631323135497,0.19193659411700156
126,1456703942705928,0.16902069060529917,0.013779200678574334,0.15298369052614502,0.17664237115387
127,1456703942726728,0.1536381822248878,0.013704118685720561,0.13993615015739302,0.15822481723166956
128,1456703942747950,0.1407489578443178,0.012985052481951809,0.12364402408837072,0.13988062670274978
129,1456703942772043,0.13044282668209295,0.01329424317850245,0.10923519353341515,0.12359626237732424
130,1456703942787042,0.12111326072531761,0.0163946712360227,0.09985269368536512,0.1093404938745986
131,1456703942809038,0.11050197245058051,0.023334045255479302,0.09634418402506324,0.09577071144796692
132,1456703942825932,0.09743198798084272,0.03387032902286367,0.09814382527987259,0.08203606353103983
133,1456703942847103,0.08336188208854305,0.046362866198359526,0.10432398270207759,0.06948566789292444
134,1456703942869043,0.07280516409465675,0.058222494425628685,0.11400160607271831,0.06206674856675543
135,1456703942885894,0.0720969061178386,0.0667860356557846,0.1260195523611018,0.06493908826287301
136,1456703942906896,0.08677615152584595,0.07026870384443577,0.1384516231888297,0.08187880354012457
137,1456703942928913,0.11859526805142281,0.06839054227233156,0.14856044346146577,0.1127724524224564
138,1456703942945921,0.16353612839343287,0.062407838141818286,0.15340958640266172,0.15252510078662823
139,1456703942965927,0.21201937958139722,0.05453015035595189,0.15080408754955174,0.1920600043171235
140,1456703942989027,0.2516401279606807,0.046970508392786985,0.14003136860887744,0.22112208451254625
141,1456703943012004,0.27149692148576987,0.041067658772992045,0.12209604339446996,0.2317755202321844
142,1456703943027623,0.26624260316933623,0.03691643458414141,0.09949916043845579,0.22118719755532257
143,1456703943048136,0.23806375240103125,0.033677817071427626,0.0757556908331264,0.19262101666822737
144,1456703943071353,0.1958272210400283,0.030335446436922965,0.0547469579242804,0.1543225689309845
145,1456703943096172,0.15189968712720497,0.026402388586208886,0.039929519704185665,0.11677769686251531
146,1456703943108336,0.11799945435756425,0.02216249737963875,0.03352560591300203,0.0893845655363704
147,1456703943131931,0.10167674024596145,0.018376800633217522,0.03596530163536003,0.07775048446750092
148,1456703943147728,0.10465297559949943,0.015721756823758176,0.045831649022353975,0.08254704889663106
149,1456703943168735,0.12337202900577945,0.014339623756116858,0.06035208265928424,0.1001613270113199
150,1456703943191736,0.15110710219272366,0.013761175278628655,0.07622730114510058,0.12457080694754841
151,1456703943207731,0.18041921687056664,0.013231775156677174,0.09045900276916377,0.14942988390824508
152,1456703943230742,0.20495905681233698,0.012265922092165453,0.1009064254033641,0.16952757297172177
153,1456703943251970,0.22026796637290855,0.011154188917861381,0.1065074581753668,0.18135197507556494
154,1456703943267756,0.22386215806813167,0.011172961443585917,0.10728750066030804,0.18305621129268107
155,1456703943288986,0.21513393493683067,0.014372205742818472,0.10430675533224842,0.1743375603517824
156,1456703943312147,0.19539670924973312,0.022980159688240662,0.09954633331525599,0.15651945885829968
157,1456703943328154,0.1679250924509446,0.038606496566578254,0.09554977492836546,0.1326533447727776
158,1456703943349369,0.13752474243018709,0.0614993137874071,0.09464231678416062,0.10715632491907885
159,1456703943371371,0.10937497367581311,0.09009132079432107,0.09785390171748655,0.084706867481841
160,1456703943387371,0.08748570355972869,0.12098008361726266,0.10409273747040354,0.06871140532323376
161,1456703943408377,0.07352784450584467,0.14938733088715228,0.11024330565577566,0.06012159320934696
162,1456703943431893,0.06665842469900717,0.1700644204304837,0.11242876171766818,0.0573256876450343
163,1456703943447401,0.06444041917272032,0.17851909569188246,0.10791719656596738,0.057284592117747606
164,1456703943468619,0.06443107581507622,0.17229770276705758,0.09666169879689937,0.057379699579591645
165,1456703943491665,0.06570064077849831,0.15193212416197405,0.08163949911316994,0.05701363714854409
166,1456703943509405,0.06954431401312097,0.12119100413044515,0.06783831195070165,0.05812855702441832
167,1456703943529414,0.078997452950812,0.08651071504031305,0.060447033206528354,0.06439255062271156
168,1456703943551758,0.09732168148446768,0.05578808989391391,0.06316573632594882,0.07947695761634871
169,1456703943568759,0.12612142531633647,0.03689807730137762,0.07743305416781253,0.10525047228363563
170,1456703943589026,0.16393035686689075,0.03629267923766394,0.10283785135108311,0.14069264078211816
171,1456703943611992,0.20587515928562006,0.057924905298110674,0.1382683744289809,0.18191146992491405
172,1456703943628055,0.24450971764580018,0.10259891598745303,0.18285405842578642,0.2230701145480392
173,1456703943650124,0.27145996084996954,0.167695025585982,0.23584358167410108,0.2576680904588595
174,1456703943671018,0.2794086860611123,0.24712972997896682,0.29528475804445775,0.27973446154333603
175,1456703943687019,0.26410834839714553,0.3315220644789103,0.356334256469504,0.28491614578319113
176,1456703943709045,0.2261882003451175,0.4088401715175331,0.4106022271693507,0.2717041095962315
177,1456703943731560,0.1722846008411724,0.46601171917679957,0.44767241020827603,0.24277328109691743
178,1456703943747030,0.11470171083109,0.4917417854840419,0.4588465758715455,0.20578661052266078
179,1456703943768037,0.06898258720429658,0.48004245428556597,0.4417433315952876,0.17265439126023854
180,1456703943792050,0.04967269618292828,0.4331593733723682,0.4034055166404694,0.15664100914189896
181,1456703943809050,0.06563453882512621,0.36232259575755094,0.35974660619105253,0.16776733594153087
182,1456703943829254,0.11672235524729889,0.28543818675801413,0.3307235518507123,0.20811680565562746
183,1456703943851599,0.1932064242851548,0.2222545904467613,0.33293571570946673,0.26930017797275074
184,1456703943874264,0.27835135367971164,0.1888792310371714,0.37302855869570306,0.33393444772485753
185,1456703943888552,0.3533611592952456,0.19385254217808698,0.4450548698670421,0.38134143592274117
186,1456703943911602,0.402857874380439,0.23698563052601132,0.5328180061625457,0.39538539265424194
187,1456703943934079,0.4187512732104765,0.3105599521306185,0.6156495307157971,0.3708490953029482
188,1456703943949294,0.40129677557569887,0.4015236281375757,0.6747312761206903,0.3152157174891681
189,1456703943971337,0.3578269417501554,0.4936171232678179,0.6974952971740814,0.24510630982215995
190,1456703943988321,0.30051870137569936,0.5693646152029317,0.6791505070971906,0.17940540401563487
191,1456703944010298,0.24380368326405272,0.6125037633832262,0.6219543366847535,0.13247325853258587
192,1456703944031819,0.20098754537376023,0.6111502025483382,0.5336826550701577,0.11018585894474281
193,1456703944048326,0.18012941997389822,0.5611356564837178,0.4264779948137259,0.1097670952908936
194,1456703944070327,0.18082594081239553,0.46826172500613306,0.3161151149624437,0.12273439517398352
195,1456703944091368,0.19412983566638686,0.34821388314874335,0.22066937173459622,0.13934269796207985
196,1456703944108328,0.2063991534009191,0.22364403968525634,0.1576372151908344,0.15265754233238332
197,1456703944132377,0.20547392039121698,0.1190708610918562,0.1397797725619884,0.16069105858968397
198,1456703944151388,0.18603022587182907,0.05514348313801354,0.1712391522749678,0.16586219348062856
199,1456703944168354,0.15141012917023283,0.04396946259054999,0.2456996395628757,0.17227550605359063
200,1456703944190355,0.11137796475483476,0.08661707666202735,0.34746491014463404,0.18244962044507246
201,1456703944211362,0.07754507721795746,0.17307134372874952,0.4550800584900606,0.19541429902143567
202,1456703944228408,0.05905949450551277,0.2843902558544862,0.546269732971839,0.20720883382775274
203,1456703944250636,0.06028080444626637,0.39663471514110954,0.6027267174135806,0.21329077375655542
204,1456703944271412,0.08056329923033806,0.48598229825310696,0.6135755334592045,0.21120237738060907
205,1456703944293392,0.11521521303916205,0.5340453146844502,0.576918100973832,0.2017560631867243
206,1456703944310430,0.1567177017472902,0.5320148063436984,0.49945034080231626,0.18803062134512885
207,1456703944341409,0.1959589935096216,0.4823116917843701,0.394511958993211,0.17299766000832534
208,1456703944353411,0.22377002822043493,0.39716823958496233,0.279091187754622,0.1575900307687203
209,1456703944370411,0.23298030491836288,0.2946888691357216,0.17038643079344376,0.1406681351314961
210,1456703944391661,0.22064028236511865,0.1938342438707183,0.08261925094265749,0.12083898130577692
211,1456703944413413,0.18944442353274107,0.10998279525806007,0.02481280119397377,0.09866105811823518
212,1456703944430615,0.14733863372946007,0.052247071314091266,0.0,0.07756051764180849
213,1456703944451560,0.10508394219923033,0.022913831861555805,0.005791210374257075,0.06279925565074322
214,1456703944473512,0.07269833967664985,0.018648850554390743,0.03575577645700033,0.059141315473378094
215,1456703944490539,0.056332118533383504,0.03269524958348457,0.08103274142285015,0.06855812984510666
216,1456703944511651,0.05681243426542018,0.057223373178673105,0.13191342240492285,0.08913709282735048
217,1456703944534115,0.07015153500355241,0.08518410089467207,0.17939230290626992,0.11561561519572211
218,1456703944549956,0.08944691925727742,0.11136827379395955,0.21659882978612835,0.14115746089588108
219,1456703944572064,0.10727047583825683,0.13272951311739564,0.2397846553714663,0.15952247405840372
220,1456703944592958,0.11778223031225687,0.1482258958405412,0.2485044950951983,0.16678338809158558
221,1456703944618090,0.1180768005206223,0.15842722102753495,0.24491761122188194,0.16207869362711486
222,1456703944631472,0.10852336217340834,0.16501254941155988,0.23253982339896204,0.14733556830757857
223,1456703944654091,0.09215382431204179,0.17017963281836995,0.21497591371774089,0.1262718014957534
224,1456703944669987,0.07344450733802757,0.17597013761123922,0.19504103625188143,0.10315707359612221
225,1456703944692091,0.056938072781716025,0.183576881632702,0.17440309938555595,0.08173743562687734
226,1456703944713983,0.04603920105757049,0.1927968773974094,0.15367971179312298,0.06452168408813236
227,1456703944730510,0.042180293183359356,0.20185111680965198,0.13285943016823137,0.05247397081953756
228,1456703944751018,0.04450682165868849,0.20773108218674402,0.11188926500566322,0.04509669521299442
229,1456703944774016,0.05019309460829757,0.20704723281908063,0.09121805156964322,0.04084822387828414
230,1456703944791018,0.05537787346802047,0.1971436759289623,0.07206509057859622,0.03779491465394933
231,1456703944812020,0.05652595961275176,0.17713000831769213,0.05627590355243571,0.034366227941775226
232,1456703944834035,0.05184922143483821,0.1485110723847967,0.04581340211269103,0.030047467286584462
233,1456703944850050,0.042334437922647516,0.11521892912413702,0.04209489763568934,0.025802185033170253
234,1456703944872050,0.03196768375268878,0.08300187849636131,0.045434908833285124,0.02402177998824922
235,1456703944894051,0.02690682094251267,0.05828042132588837,0.05480904721321684,0.027902429425089487
236,1456703944911052,0.033640822288535106,0.04673891904199384,0.06806035630845168,0.0403479635268955
237,1456703944933407,0.0565796718781632,0.05204290393503643,0.08253419009122684,0.06272754997677876
238,1456703944954041,0.09588001252727697,0.07506457840888983,0.09597381609897337,0.09394337779467192
239,1456703944969921,0.14638641414194453,0.11380711493136288,0.10738758766199562,0.13018535233738932
240,1456703944993079,0.19828391247844399,0.16392371736633776,0.11753939438398117,0.1655209540317278
241,1456703945012920,0.23954684519120786,0.21952648062853006,0.12874754507532932,0.1932214002115151
242,1456703945038715,0.25967656929716093,0.27400860599359006,0.14387199620588764,0.20752720689174797
243,1456703945053507,0.2536340692505236,0.32079102476821847,0.1647469029675821,0.20540860648193005
244,1456703945073794,0.2244755108057796,0.3540453122636879,0.19071493334668901,0.1877980250594415
245,1456703945090508,0.1833388348107401,0.3694166007494296,0.21803947060169723,0.1598270955060262
246,1456703945113511,0.14632755667302497,0.3646465331174742,0.24063585558970527,0.12983999276702332
247,1456703945133817,0.12918063377918065,0.3399432138322324,0.2519463488323773,0.10732036923593274
248,1456703945150330,0.1416718081587154,0.29804035814549423,0.2472719796477019,0.10021240336310248
249,1456703945174330,0.18390718539420595,0.2440413960716543,0.22572333208611028,0.11235880843320295
250,1456703945193548,0.24605206829699403,0.18518297071423634,0.1911372705237904,0.1419213932504602
251,1456703945210332,0.3117685725750181,0.13049405942811312,0.15165264089164726,0.18156293551578415
252,1456703945238770,0.3641637645869294,0.09008819653990201,0.11799110403734858,0.22063250704865914
253,1456703945253561,0.3919002014389908,0.07376236623893268,0.10079903817402813,0.24869988906646331
254,1456703945270561,0.3928976418484988,0.08887287724106403,0.10770904849312403,0.25904550923242353
255,1456703945293562,0.3740040022475187,0.13800028599035757,0.14104010739755493,0.2506476826383391
256,1456703945317563,0.3468485638552988,0.21728908106295677,0.19702682211107944,0.22791224260978452
257,1456703945330857,0.3220405347212988,0.31621338334402127,0.2668953663904391,0.19849855008435632
258,1456703945353873,0.3048711423375798,0.4189811915739437,0.33916828702424556,0.17049791885895196
259,1456703945373875,0.2948188925736334,0.5072734766549127,0.40199548542001523,0.15033452106667494
260,1456703945391116,0.2886083193433399,0.5637884321461278,0.4446971322009445,0.141939206956283
261,1456703945412876,0.28406502070819606,0.575997200591625,0.4587587930431559,0.14664667243321133
262,1456703945433818,0.28169818099647154,0.5393631331329567,0.43909695112751,0.16298714116337
263,1456703945450107,0.28319045088339656,0.4590700126141597,0.3858315050113762,0.18640225378599726
264,1456703945473108,0.2887120859045527,0.3494062547745646,0.3057163385142894,0.20981614867454207
265,1456703945493327,0.2957084455895522,0.23063179421771735,0.21198069426228122,0.22567275915408935
266,1456703945516326,0.300088933594598,0.12419309962387333,0.12202081378057567,0.22871204995682645
267,1456703945533995,0.29845667523427166,0.047898509411568355,0.05352033555654199,0.21785087827706798
268,1456703945553640,0.28938147707351813,0.012561226813045187,0.02027541925427399,0.19606123478968976
269,1456703945576648,0.27307828238374393,0.020754167549366393,0.02891777176730972,0.16860477553838357
270,1456703945593354,0.2504866461612117,0.0674094368051527,0.07724808839057991,0.1409857818757486
271,1456703945613356,0.22293605476289316,0.14162731277736904,0.15452232135570199,0.11769010436474332
272,1456703945636881,0.19252208016128977,0.22914351878428413,0.24377817481152786,0.10173040617226004
273,1456703945653390,0.16248752526070415,0.31498945339332346,0.32581753474096664,0.09441848221254011
274,1456703945673605,0.13701467609955745,0.3858330890982826,0.3837820922490334,0.09511444978361776
275,1456703945696391,0.1203401260921325,0.43157380406323465,0.40689366122569826,0.10131867464750403
276,1456703945720392,0.11541948086970262,0.4461483614911702,0.392298877560766,0.10949105913545316
277,1456703945733981,0.12253448730470128,0.42790891480414717,0.3448185248809494,0.11632138335281675
278,1456703945757191,0.13840341117361538,0.37990682780206053,0.2750882912611394,0.11963381439822506
279,1456703945773191,0.15643286192596415,0.30991661975551177,0.19674713902928742,0.11840905006749974
280,1456703945797194,0.16851739595596665,0.22959192656211222,0.12326039146154096,0.11228191307042255
281,1456703945817194,0.16809049977415855,0.15233058693034024,0.06503624511695229,0.1013390756959615
282,1456703945833488,0.15317269243854312,0.09020863452382778,0.02760030114835592,0.0865693733039036
283,1456703945855282,0.1277092297521523,0.051087041036237214,0.01134714296234394,0.07045279510968024
284,1456703945876586,0.10020106631640634,0.03707864332080144,0.012769601277545143,0.05686482534225735
285,1456703945893284,0.08017265563715946,0.04492179717999576,0.026493587666440045,0.049994948015916196
286,1456703945915286,0.07423345068084104,0.06790687476726069,0.04726708508877642,0.05275759043048329
287,1456703945937079,0.08356198423872807,0.09840135700372002,0.07125137557628808,0.06553267634948472
288,1456703945953613,0.10374758644581274,0.12997913935197247,0.096334840004733,0.08584061969515967
289,1456703945975631,0.1267730665304072,0.15855216063527466,0.12157902166490112,0.10902732220227658
290,1456703945996598,0.1440948954207142,0.1824135495209301,0.14623392896181342,0.12960177818417948
291,1456703946013599,0.14953481529410698,0.20149036800071046,0.1689113206489395,0.14272287780543522
292,1456703946035665,0.1410035778340388,0.21628875424648838,0.1873567880699186,0.14540133843546013
293,1456703946057009,0.12067176993151521,0.22700039504237188,0.19887127779394545,0.1371181778446827
294,1456703946072927,0.09377248298396684,0.23306916245609705,0.20108013552999013,0.11972023850687165
295,1456703946094928,0.06659636164682868,0.23327925344960743,0.19267397205894923,0.09666596469641446
296,1456703946115935,0.044412761666704326,0.22622972016820458,0.17390387672244598,0.07192600499869932
297,1456703946133486,0.03003431824475195,0.21096656184495702,0.14676750233529182,0.048971555119691625
298,1456703946154958,0.023490608848630683,0.18754980269281685,0.11485747357676632,0.030206846119541532
299,1456703946175959,0.022804868196367872,0.157403336161951,0.082857296993853,0.016947141511328225
300,1456703946193979,0.025386867818856185,0.1233801688667502,0.05575241373149933,0.009765283946665076
301,1456703946214963,0.02935107765884748,0.08953098759084482,0.037907538741088875,0.008891712047622381
302,1456703946236979,0.03423489802093717,0.06059165573199289,0.03216677366729812,0.014406524690954565
303,1456703946252991,0.040965499922771986,0.0412536193259881,0.039124645185841946,0.026146267240085085
304,1456703946274990,0.05126292260697388,0.035372572704483886,0.056786689226585155,0.043449773592755765
305,1456703946295991,0.06680373615045099,0.0453426237497095,0.08091018090629065,0.06496304195278936
306,1456703946312993,0.08839065542156135,0.07181288287596405,0.10618543467365389,0.0886488560229912
307,1456703946335534,0.11524319410812937,0.11372755309660702,0.1280105158468062,0.11197877286372937
308,1456703946356446,0.14453464330420143,0.1684577636133743,0.14414054935501902,0.13218497386151856
309,1456703946373220,0.17144576319350593,0.23176413641256918,0.15532902590063521,0.14650646061750688
310,1456703946395221,0.19007748155370727,0.2975658271376159,0.16444475805402745,0.15251801438381915
311,1456703946424436,0.19534962449181098,0.3578488704053009,0.1743249730390677,0.1487177051114733
312,1456703946433704,0.1854531166738795,0.40324439735852546,0.1854203254553277,0.13540650150271286
313,1456703946455630,0.16374283087677752,0.42463896939363854,0.19462726385508616,0.11551282689200179
314,1456703946476601,0.13872552005949323,0.41566187007160216,0.19624403318022202,0.09467623348312311
315,1456703946493597,0.12154399556341586,0.3752809114017679,0.18481602210262466,0.08004215228768582
316,1456703946515634,0.12182123266180414,0.30939430159786957,0.15843827329056248,0.07793895760912449
317,1456703946536674,0.14380974261483906,0.23049829620796944,0.12072692962136422,0.09140899436590998
318,1456703946553669,0.18466804212385193,0.15522296011708345,0.08042640087844888,0.11879859764174198
319,1456703946575642,0.23559637765296762,0.10043239890028383,0.048888113232341344,0.15413491436990728
320,1456703946596645,0.28527120688376323,0.07919795851580372,0.03657911319702782,0.1891888341029765
321,1456703946613680,0.3240330874436135,0.0979188120505217,0.049961913850210156,0.21636091589521547
322,1456703946635944,0.3468932651637672,0.1552342811522188,0.0897001858881993,0.2311196095761654
323,1456703946656807,0.3539441024644892,0.24261009169621664,0.15053435933178663,0.23289210252551734
324,1456703946673804,0.34823753893310194,0.34606801264081277,0.2225850922594883,0.22412154808066892
325,1456703946703804,0.3328969844380863,0.448558396620892,0.29345469637736055,0.20830749953577346
326,1456703946716836,0.3097690545466423,0.5327098395112152,0.35049029905621354,0.1884587884048862
327,1456703946733612,0.2804989666680025,0.5838590708771174,0.3829769536402417,0.16688036361476213
328,1456703946755656,0.2485444479648328,0.5931719272282234,0.3844178667368539,0.14591894065267302
329,1456703946776883,0.21958841271794136,0.560244950717674,0.35480794220939643,0.1284306715976839
330,1456703946799769,0.19926037570592414,0.4940883788660918,0.30197521903059,0.11715496533781068
331,1456703946815661,0.18971430068958212,0.41142087978516984,0.24062620806857038,0.1133826313978961
332,1456703946838606,0.1879081079701156,0.33216043106178883,0.1885186053484776,0.11606674070317571
333,1456703946859897,0.18719537390412244,0.2735161756761793,0.16082909461009046,0.12218529313661095
334,1456703946877653,0.18122633668929247,0.24508996592100596,0.16498236630930993,0.12812407776332455
335,1456703946898619,0.16742785471790242,0.2469689338683374,0.1980480972540625,0.13108245193821366
336,1456703946919817,0.14785166168441446,0.2711772533527144,0.24762917124870373,0.12968497505627624
337,1456703946935855,0.12729654188864492,0.3053019723022886,0.2958885664170816,0.1238076565133403
338,1456703946957958,0.11039146504135054,0.3365784677009002,0.3254151458723245,0.11415968238115247
339,1456703946978991,0.09949934886430567,0.35511163292806236,0.3249646492976451,0.10196446596835404
340,1456703946995797,0.09426146652253019,0.35558056162517276,0.2929465567933324,0.08867774198707691
341,1456703947019931,0.09250343223682637,0.3373561528421396,0.23728006788258266,0.07565991111783386
342,1456703947039512,0.09168327029987387,0.30341555754032545,0.17180683089463106,0.06393535540336918
343,1456703947055027,0.0900446206880571,0.2587242917053326,0.11098307099096058,0.054162572418764376
344,1456703947078029,0.08699371045167921,0.20876572203618804,0.06516632359400044,0.046722339552114515
345,1456703947099070,0.08278776421134103,0.15862990125606086,0.038221579303266966,0.04175945063278255
346,1456703947115030,0.07803263555162479,0.11269040600251065,0.027901512377095695,0.039151450930861705
347,1456703947138552,0.07338580192274059,0.07459503371408262,0.028257954955808115,0.03848421401942429
348,1456703947159065,0.06942702979419657,0.0472142370997573,0.03272922586998672,0.03908332257246295
349,1456703947175067,0.06647329368207158,0.03236460760955857,0.03662079549394371,0.04010826578953319
350,1456703947198068,0.06437020968897067,0.0304191637603023,0.038239602287731905,0.040738447842405164
351,1456703947219069,0.0625422623050389,0.040089465803917125,0.03861415872365199,0.04046902597696647
352,1456703947235487,0.06043017710262419,0.058589975574247256,0.04023706253755718,0.039418837948238014
353,1456703947259972,0.058056862393599605,0.08217841805777884,0.0454740825429572,0.03843393669625315
354,1456703947279183,0.056263211354425115,0.10689695536260634,0.05525200746278935,0.03880124320815974
355,1456703947295974,0.056335653615314035,0.12929938051637346,0.0684834630152065,0.041601498038090254
356,1456703947318975,0.059192105378280395,0.14700122548904976,0.08244186794178272,0.04701579632034532
357,1456703947339797,0.06467177044348263,0.15896784572731715,0.09393613983875666,0.05403753115277883
358,1456703947355289,0.07144172530879363,0.16551624908959453,0.10073627544769481,0.06083981593060012
359,1456703947384625,0.07756224948852877,0.16803210305213628,0.10251340260896341,0.06558134918465787
360,1456703947399625,0.08125525226439807,0.168416999528206,0.10078823917665082,0.06709613067135115
361,1456703947415293,0.08137582685856729,0.16833857301524432,0.09794614876015757,0.06505874866588983
362,1456703947438814,0.07750926321242878,0.16847928058155812,0.09590895863490315,0.05972363940656907
363,1456703947459362,0.07000064431116215,0.16809307757378095,0.0952028480169583,0.05168183122165349
364,1456703947475626,0.060143899032492086,0.16515060469331808,0.09487093073289028,0.04192888123557854
365,1456703947498542,0.050369995167183886,0.15712766022856942,0.09318053073050998,0.032112864781548525
366,1456703947519620,0.04405689036015408,0.14217747694827473,0.08867477792140181,0.024589089455493107
367,1456703947535809,0.04474462558870371,0.12022377088393146,0.0810030488916725,0.02202701765952288
368,1456703947558829,0.05492038257327304,0.09353914066890114,0.07114431271167151,0.026624490247233186
369,1456703947579565,0.07488009326854987,0.0665889610364011,0.0609855764772673,0.03924563553971921
370,1456703947595571,0.102244112570337,0.04518928006872185,0.05254756778905561,0.05887249546322424
371,1456703947618568,0.13240961432471532,0.03523994782541121,0.04730242866084131,0.08261864578622194
372,1456703947639675,0.15976429251510663,0.041402249046550016,0.045950903807462105,0.10630212533644684
373,1456703947669962,0.17922880354595988,0.0660654011139452,0.04877284413409151,0.12540214535690125
374,1456703947678663,0.18775195061713934,0.10878843976946068,0.05633267107319231,0.1362000841178689
375,1456703947699665,0.18550063750384715,0.16620158363521356,0.07004037171863647,0.13690334976943194
376,1456703947715924,0.17642830326716932,0.23225122390129394,0.09201856671749585,0.1284560640484914
377,1456703947738654,0.16778132834838033,0.2987362030918969,0.1240432982905238,0.11465180831643147
378,1456703947760977,0.16823691258301396,0.3562079037876519,0.1659135552381382,0.10127880743195862
379,1456703947781776,0.1849272591756883,0.39532701607723025,0.21409782670370653,0.09439692047187309
380,1456703947798765,0.22037598920285234,0.4086149227888109,0.2615373541797184,0.09830313534896083
381,1456703947820766,0.2707999287253808,0.39229283349498,0.29900689321983287,0.11401193717443764
382,1456703947835562,0.32683469766530937,0.347732270819247,0.3177440784590985,0.13893589114005903
383,1456703947858579,0.3766433297545441,0.28205283528471525,0.3125300244203091,0.16791879914027982
384,1456703947880581,0.4102423008203623,0.20757484248004418,0.28421266292874237,0.1951552296566314
385,1456703947901954,0.4233149983846267,0.1400685292122578,0.24076723459694785,0.21616909134365214
386,1456703947918582,0.41887241584587853,0.09596656290165,0.19628978916413786,0.22902733931325656
387,1456703947941040,0.4057692937362351,0.08892749791509906,0.1678095761388063,0.23426558400237743
388,1456703947957986,0.3943184017001267,0.12639783492779674,0.17051524079974292,0.2335598117943969
389,1456703947977896,0.3908821151733506,0.20706628168657648,0.21276037557737384,0.22790171406593238
390,1456703947999897,0.3944450145139261,0.3201188440701861,0.29258759282618985,0.21653318139639752
391,1456703948021938,0.39750522132470206,0.44681998287315683,0.39711352524513827,0.19759418005824372
392,1456703948038891,0.390975989449293,0.5642957619732036,0.5051595608758455,0.17023494601732284
393,1456703948059934,0.36998443709926315,0.6507637450351224,0.5925533059471266,0.1366842979381386
394,1456703948088940,0.3368893274101549,0.6909638021360677,0.6388206609990899,0.102622938595777
395,1456703948097936,0.2999272440186832,0.6802230616925762,0.6334583368311109,0.075393913921162
396,1456703948120936,0.2687180261556231,0.6256410835068869,0.5796834196572277,0.061053303618733575
397,1456703948141893,0.24938653583136644,0.5436140775104543,0.49390130270968663,0.06188381282736316
398,1456703948158887,0.24183376309659957,0.45434930769066983,0.4005264280816228,0.07556286260560613
399,1456703948180871,0.240385463482401,0.37556496916828425,0.32393649545072506,0.096245371389343
400,1456703948201903,0.23736387356586278,0.3181320682861426,0.2808892032796716,0.11694189304969035
401,1456703948225886,0.22761492353756696,0.2852359036848833,0.27633648678710165,0.1320450949059017
402,1456703948240853,0.21142267483732502,0.27437924261788865,0.303524749615204,0.1389074546196891
403,1456703948261915,0.1941660900715938,0.28006048451980065,0.3473251369117189,0.13802879103911456
404,1456703948278913,0.18308908008009772,0.29540612897295204,0.38912952692838665,0.132189190520655
405,1456703948300911,0.18323414574308805,0.3126697772080188,0.4119962536849259,0.12513169249798448
406,1456703948321911,0.1948149431060361,0.3236549104170295,0.40504019900594224,0.12018238972485537
407,1456703948338770,0.2131577273315277,0.3209517707058724,0.36607225053412057,0.11905718141735087
408,1456703948360014,0.23077847142425015,0.2998923728509277,0.30168637466356973,0.12122921103259898
409,1456703948381016,0.24024293379958842,0.26028850849902263,0.22470668803828303,0.12422979142510511
410,1456703948398017,0.23660001549917606,0.2069055766829092,0.14987784444068125,0.12486612901440614
411,1456703948420017,0.21880918686976786,0.14821839164483944,0.08936822016386334,0.12079061991034562
412,1456703948441859,0.18992501694151548,0.0938757901340573,0.04968376073901038,0.11158346245307348
413,1456703948457861,0.15592553303167894,0.05193689004071333,0.03093016619735158,0.09878221219433296
414,1456703948479862,0.12350479032661266,0.026967105470855537,0.028340465581445227,0.08497623143933555
415,1456703948502968,0.09776546551276612,0.01953306281446376,0.035127558539755376,0.07265585721740685
416,1456703948517967,0.0808411164413773,0.026933943987578698,0.04539499928831797,0.06348504081088195
417,1456703948540659,0.07184943418131551,0.0445970166878956,0.056054080051676246,0.05814155538501635
418,1456703948569941,0.06785257642734042,0.06755071915635599,0.06722457772775034,0.05642767865416902
419,1456703948578676,0.0652696897931655,0.09157034853104047,0.0811940959960993,0.05739174517743595
420,1456703948600677,0.061311409855907884,0.11378778921068612,0.10051311647796832,0.05949343484918734
421,1456703948621996,0.05504305615002442,0.13274451199418222,0.12609897812021922,0.0609461332871657
422,1456703948638484,0.04763781546668344,0.1480423572984932,0.15619308791069614,0.06020461208044562
423,1456703948659994,0.04161334829045906,0.15983775151475096,0.18659999263203464,0.05641092073434306
424,1456703948680996,0.03939132392036402,0.1683901131296946,0.21199437424401835,0.04963143887192312
425,1456703948697999,0.04194950495572545,0.17376922366674027,0.22758550237587644,0.040815149910846456
426,1456703948719997,0.04828152540679236,0.17573346795916112,0.2303844053473181,0.031472189694171745
427,1456703948744025,0.055891646668675486,0.17375149456398034,0.2197001925998043,0.02315105054560264
428,1456703948758069,0.0619634414527624,0.16714753842837896,0.19697596859872796,0.016909603840858184
429,1456703948780033,0.06451096478643661,0.15537087846253703,0.1653305151182544,0.013030055317525924
430,1456703948803034,0.06294031893352502,0.1383789656422096,0.1291062106788782,0.011126055223040086
431,1456703948818035,0.05789496169399422,0.11706224683609728,0.09348674447344207,0.010583361916457167
432,1456703948841936,0.05066896815613424,0.09355658069320584,0.06406337837710598,0.01110152676582278
433,1456703948863208,0.04258662860927117,0.07125276302641452,0.046229027550294136,0.013049695437880093
434,1456703948878207,0.03460925002019757,0.05438084754829169,0.04443828819584284,0.017428251704713234
435,1456703948900208,0.027242561418325182,0.04721910787082264,0.061527659601452685,0.025416089929235358
436,1456703948923210,0.020700727786489057,0.05316828905284893,0.09827780615114413,0.03770042560955031
437,1456703948939298,0.01523337094974841,0.0740084032265598,0.15321566904861386,0.05390403535843068
438,1456703948960094,0.011495579226488282,0.10953718525845543,0.22248198474849143,0.07237730132071402
439,1456703948983094,0.0108024569505394,0.15754438507406124,0.2996203156513612,0.09046937132520178
440,1456703948999096,0.01507463835443387,0.213901145751664,0.37540066488920326,0.10523622611747557
441,1456703949020096,0.026332467435780646,0.2726002922212865,0.43812539755094887,0.11441914044228864
442,1456703949058317,0.045796297290641455,0.32584248280512357,0.4750374032843889,0.11740635078443201
443,1456703949061348,0.0729294124077143,0.36452675055491884,0.47521520243235327,0.11577756643616499
444,1456703949080312,0.10494821232186759,0.3795592836355667,0.4336014690864186,0.11303682765696357
445,1456703949103313,0.13727078275043111,0.3641343548802283,0.35482395987461235,0.11340988471072928
446,1456703949119314,0.16501855457975925,0.31660625704607503,0.25485100090829493,0.12008570262667356
447,1456703949140326,0.18511005582414447,0.24297599242091714,0.15889461506013736,0.13369946089826726
448,1456703949163335,0.1979911272976412,0.15771456012499818,0.09539020566423638,0.15182474495406148
449,1456703949184624,0.20802248767777134,0.08192390375027737,0.08766353410439491,0.1697616279774026
450,1456703949201337,0.22209040699864255,0.0386835925306235,0.14609467361706416,0.18232614562169622
451,1456703949222704,0.2467807908637267,0.04651927902926836,0.2636336640313281,0.18594060681258726
452,1456703949244354,0.28509412121506716,0.11283534937385038,0.41645616815214664,0.18014026670066952
453,1456703949259397,0.33408369909530106,0.2295702554679879,0.569823521555858,0.1677516063175626
454,1456703949282684,0.38479395272001676,0.37307993759467056,0.6874415371598257,0.1536079882231451
455,1456703949304615,0.4250279149841485,0.5092030656405029,0.7414283044804799,0.14250162752895112
456,1456703949319613,0.4438825546014643,0.6026604195994358,0.7198577859738361,0.13746821773955875
457,1456703949342409,0.4357920144642331,0.627944166562924,0.6297407645314265,0.13910548404682765
458,1456703949364438,0.40210510250307313,0.5777036280717989,0.4947585348986598,0.145852186534485
459,1456703949381421,0.3497580824597513,0.46521769498620646,0.34850875197067016,0.15470295879158558
460,1456703949402456,0.28819662072427665,0.3198526085954711,0.22517079706133988,0.16196130867380665
461,1456703949424421,0.22638034354302314,0.17737475476285286,0.150260914157819,0.164002649346441
462,1456703949439429,0.17118718534452565,0.06905694895798806,0.13429264173882816,0.158152545798731
463,1456703949462439,0.12731364990214508,0.01360302189845396,0.17133364605801701,0.14359884839148473
464,1456703949484441,0.097875994891272,0.014179905442904603,0.24269256357099875,0.12205442231491467
465,1456703949499447,0.08493105857476634,0.06048999469499635,0.3240079828249929,0.09783698479557539
466,1456703949522725,0.0895963707930619,0.13407785639810932,0.39284581951438524,0.07707291385403306
467,1456703949544652,0.11170584761878036,0.2144670870600599,0.43410460287176095,0.06595587819264545
468,1456703949559666,0.14901857810588912,0.2841300623063846,0.44189176289543053,0.06850416255196928
469,1456703949582746,0.196312738846726,0.3312801278286879,0.4182736195324437,0.08474839616999293
470,1456703949604678,0.2452124197721192,0.35051927768942454,0.3704505732758968,0.11027510624657084
471,1456703949619683,0.2856195751812775,0.34202170657952047,0.3079300372901376,0.1374848087542819
472,1456703949642480,0.30862625674847405,0.31004445797048585,0.24044962744523843,0.1581118643499984
473,1456703949665685,0.3094260630957549,0.26133325446465205,0.1765778505283296,0.16592018960257918
474,1456703949678875,0.2884892661620648,0.20371553937661202,0.12270339802215406,0.15845248670418755
475,1456703949702956,0.2505672631163067,0.14497153168096755,0.08241780879254593,0.1373507839652897
476,1456703949724892,0.20261101314985827,0.09195260407866304,0.056543320636051636,0.10752150113325415
477,1456703949739692,0.15192649391646662,0.04988878755631565,0.043888660297763164,0.07565870828074729
478,1456703949762705,0.10500838662471,0.021904824745155045,0.04237586214907833,0.04846935714289879
479,1456703949784707,0.06677457323682573,0.008854275891427111,0.04990900200513045,0.03089822967152878
480,1456703949799922,0.039985339291393765,0.009545478765234096,0.06454962746052491,0.02482099540141701
481,1456703949822949,0.02498546008475547,0.02127804550626125,0.08411454013357825,0.028695034837790245
482,1456703949844720,0.019967133601406423,0.04049897981762723,0.10576739650054048,0.03833791704012985
483,1456703949860941,0.021717136679624174,0.06342751688272283,0.12613980842813077,0.04853422782824542
484,1456703949883910,0.026594349144806018,0.08660095001532439,0.14203839408979174,0.054835391989746074
485,1456703949904905,0.03143967902210271,0.10732521480085419,0.1513096417355673,0.05486712262538735
486,1456703949920902,0.03419384415128623,0.12397201028627157,0.15333722477415587,0.048707978922147996
487,1456703949942987,0.03410924689067978,0.13604665753606626,0.148942728624907,0.03833759380401573
488,1456703949964266,0.031567804725883566,0.1440036858192497,0.13983856666930194,0.026555235739685355
489,1456703949981266,0.027637813820169842,0.14886411798504912,0.12795656396854815,0.01592231626303206
490,1456703950002603,0.02357284106972327,0.15173517369316147,0.11491904344201695,0.008131420321544009
491,1456703950032338,0.020438205795491826,0.15334707640852957,0.1017760794825559,0.0038972115940456692
492,1456703950041300,0.018956987682436286,0.15372423903648252,0.08901683700955482,0.0032100602157311984
493,1456703950062273,0.019552669273024965,0.15209778396299978,0.076787484647632,0.005698808698868444
494,1456703950084191,0.022488315944055523,0.14712485973984205,0.06519388222479182,0.010898638423155796
495,1456703950100972,0.02797993430601791,0.13740529608235225,0.05454296645383055,0.0183400301068043
496,1456703950122184,0.03617729602848942,0.12219296131506929,0.04540534232476,0.027486540615234343
497,1456703950144488,0.0469612578187822,0.10210437652179348,0.03846425481749218,0.03760891310057848
498,1456703950168990,0.05962566390162024,0.07955616904204177,0.03422421446510415,0.047698496470464785
499,1456703950181990,0.07265167150902227,0.05866649521093183,0.032738124770673234,0.056508694634688536
500,1456703950204205,0.08380897899571992,0.04448915133091651,0.03352396536237693,0.06275714403202463
501,1456703950219992,0.09066162197015434,0.04171008034284194,0.03575741109452052,0.06543125983622533
502,1456703950242503,0.09133275880726868,0.05321750038631352,0.03868116384588179,0.06407647641209886
503,1456703950282008,0.08525699264557535,0.07908804573917903,0.04205199314898734,0.05895687605235436
504,1456703950287239,0.07364419704287406,0.11639883467704552,0.046425644818200544,0.0510350579306634
505,1456703950309223,0.059443638110513154,0.15992872839304492,0.053153616088073855,0.0417737877082347
506,1456703950324224,0.04674083734788739,0.20344337416825028,0.0640666702773972,0.03281338175626342
507,1456703950347023,0.039747015138095664,0.24106566005161476,0.08089556414084903,0.025635589519842603
508,1456703950362024,0.04173439573037889,0.2682900976491021,0.10453041831489289,0.02134946717177407
509,1456703950385026,0.054278316354530926,0.2824304095040242,0.13426659528988968,0.020675385235894572
510,1456703950407330,0.07698235491122603,0.2825448595081897,0.16724411473293335,0.02407596512039157
511,1456703950423028,0.10763212071498585,0.26905749747173185,0.19836401296561074,0.03187464945053571
512,1456703950444539,0.1426150636781363,0.24336886490999987,0.22099899415103819,0.044200169465504674
513,1456703950467851,0.1775350984079077,0.20773442005039267,0.2286794021590731,0.060732056872217006
514,1456703950482837,0.20812647625994388,0.16555497174970968,0.21755442254808338,0.08043292331322273
515,1456703950504854,0.23152535828349824,0.1219542865791151,0.18889866348056378,0.10154984888035026
516,1456703950527833,0.24752425317932636,0.08419781460808956,0.150516757066699,0.12199596896741005
517,1456703950542852,0.25895383488214174,0.06133099284955776,0.11592301996534028,0.1398920656369982
518,1456703950564575,0.2704364104102049,0.06259547944462586,0.10086130694870489,0.15387304075862016
519,1456703950587861,0.2856843189479557,0.09474524269507315,0.11794837216913011,0.16295902317685493
520,1456703950602865,0.304782011456383,0.15905711546070778,0.1713828461410184,0.16625389002597415
521,1456703950624897,0.32348238914560534,0.24920173043086258,0.25402275715084843,0.16306585406091767
522,1456703950647595,0.33560330984135234,0.3510210741513699,0.3483697225076187,0.1537927010049385
523,1456703950662596,0.3373548935668273,0.44477505442489434,0.4314530640667291,0.14107448354955895
524,1456703950684897,0.33056138789942685,0.5097266711855718,0.4820158003346236,0.1300318782297525
525,1456703950707863,0.322141015509739,0.5300610042077959,0.48743915775071484,0.12674295556346937
526,1456703950722861,0.3198443623011189,0.5002514366300619,0.4478714189391251,0.13538542503753145
527,1456703950744609,0.32697693445182385,0.4276320457252951,0.376035541037015,0.1556227363763242
528,1456703950767618,0.33955659452874853,0.3306738237167422,0.2928100750594781,0.18190457158263867
529,1456703950784619,0.3478422823759201,0.23326855440630717,0.2203173779288208,0.2053546571629715
530,1456703950804620,0.3415509686326345,0.1572812138306913,0.1752026904681931,0.21746267702546596
531,1456703950834604,0.31576927242332725,0.11642490441888234,0.16447676401682865,0.21370738992404695
532,1456703950844889,0.27398800502567955,0.11356939019025687,0.1848619545957518,0.19524813882557426
533,1456703950863897,0.22652047666349517,0.14172826505860048,0.22503944577282942,0.16801770972061167
534,1456703950887899,0.18552980982668815,0.18754974757957518,0.2695187846779213,0.14000305252993298
535,1456703950903898,0.15964534263955363,0.23574012401619318,0.30299290057892825,0.11812381549236262
536,1456703950924900,0.15077014600221936,0.27309369780638165,0.31427071611376606,0.10585679145001026
537,1456703950946913,0.15413738689363132,0.2912068472525673,0.298885620043397,0.10230900223375977
538,1456703950963923,0.1611385177254855,0.2874223494244114,0.259640840223484,0.1030734730198668
539,1456703950985925,0.1633878284152925,0.26410937661893874,0.20499988785474602,0.10258379845223684
540,1456703951007924,0.15609362918055664,0.2268834125358736,0.1460810671179177,0.09685105761127757
541,1456703951023925,0.1392880314226987,0.18258227883608827,0.09347689896303629,0.08514284913275255
542,1456703951044437,0.11672392916581555,0.1376717895543324,0.05491987367347793,0.06985222716403876
543,1456703951066947,0.09354070446311052,0.09738655201159979,0.03421117471733773,0.05498650176857683
544,1456703951083946,0.07419582969726642,0.06552101642657501,0.03128299715226729,0.04437293120408825
545,1456703951104948,0.061479878020345005,0.04454402179870719,0.04303262306730351,0.04045193088797421
546,1456703951127949,0.056457704078186274,0.03570390785078278,0.06457143045130692,0.0438875688404318
547,1456703951144491,0.05875640456330757,0.03898843759979672,0.09057965412806952,0.05377522129371917
548,1456703951163974,0.06684489818059512,0.05305628027613947,0.11647573361582382,0.06812432252282104
549,1456703951186970,0.07831701550238206,0.07537807195786728,0.13915196103746175,0.0843704745825299
550,1456703951203971,0.09029811098444684,0.10271764293500217,0.1571465656855292,0.09978330499114292
551,1456703951223977,0.0999703078813407,0.13182925468778292,0.17030107565799185,0.1117516280677637
552,1456703951246988,0.1050836015280291,0.1600521098835136,0.17911754107665187,0.11801988535795503
553,1456703951269003,0.10432702903922643,0.1855074828573903,0.1840952445875395,0.11697596456789912
554,1456703951284194,0.0975277095250729,0.2068306363284733,0.1852697049505808,0.10802605349068213
555,1456703951307192,0.0856808104663012,0.2226471486347771,0.18206971900043792,0.09195148563515462
556,1456703951324003,0.07075329969881083,0.231169637360558,0.17352606043084118,0.07101025220958071
557,1456703951344741,0.05519765644113166,0.23026072737587083,0.15880413838143032,0.04856620979632555
558,1456703951367029,0.041270581060389694,0.218090897979848,0.13794386620471305,0.028264989449396958
559,1456703951384024,0.030437686319904268,0.19421085229321186,0.11256617148033597,0.013075820921845782
560,1456703951405361,0.023132750957306193,0.16060378744551665,0.08621274522202026,0.004624494845139446
561,1456703951427329,0.01892734894364141,0.12220749183809439,0.06402163545519246,0.003063989871600085
562,1456703951443539,0.016962094330782496,0.08653751853347573,0.051657961623701856,0.007433822720801636
563,1456703951464049,0.01643587415581756,0.062351957024715673,0.05375882687432823,0.016265919750862945
564,1456703951488048,0.016996954002372354,0.0576703913882554,0.07244747097092968,0.028164740227535994
565,1456703951509330,0.01892573952340241,0.0777443955937113,0.10652999036253519,0.042152184135765096
566,1456703951524336,0.023024702137440466,0.12361413418541543,0.15173045499683882,0.0576639979489116
567,1456703951547065,0.030197735812813348,0.19162552425664103,0.20187392703648854,0.07421581463063026
568,1456703951569073,0.04084527596063944,0.2738877225502204,0.2505335160548267,0.09092272617169384
569,1456703951584293,0.05435602622436178,0.3593927788227425,0.292488915806233,0.10618087040544898
570,1456703951607306,0.06900942734611723,0.4355333492464607,0.32443950428621265,0.11778363065132148
571,1456703951629288,0.08244025172314619,0.4899351815423941,0.3447503901458969,0.12352038358640234
572,1456703951644830,0.09251732472024163,0.5126432931622185,0.35251093110954873,0.12202630234066571
573,1456703951667106,0.0982155263936371,0.49859277959610004,0.34666066330233825,0.11349708636703625
574,1456703951698107,0.09999137210550021,0.4499392070079091,0.3260859605180784,0.09991654955001932
575,1456703951704388,0.09940926903535298,0.377384854077507,0.2911693012911943,0.08461397549619419
576,1456703951727438,0.09824235383142726,0.2994349007015743,0.24632873957216686,0.0712067742715014
577,1456703951743628,0.09768787928029471,0.23889754454382567,0.20206817309064767,0.06225039386917017
578,1456703951766138,0.09829745850339369,0.21701046564278337,0.17465795150718516,0.05814251210958403
579,1456703951787474,0.1006473318464162,0.24691469474689462,0.1822886451097267,0.05688454886438039
580,1456703951809427,0.10611721325267029,0.32892374308778016,0.2382959964605405,0.05505428801763086
581,1456703951832853,0.11700959578566257,0.4494731129584238,0.34400142712486326,0.04978304031844597
582,1456703951847156,0.13577585042454637,0.5840747088505943,0.48462060967579684,0.04090091877995635
583,1456703951869165,0.16386843676054197,0.7031563802054192,0.6308160681939102,0.032111247301518105
584,1456703951886399,0.20102689963746992,0.7791636777091794,0.7461948590695652,0.03033931916222929
585,1456703951907427,0.245319085485417,0.793494381512715,0.7985377778478135,0.04317153988734602
586,1456703951930168,0.2934679136044416,0.7419214616974197,0.7708674369713598,0.07519277603891794
587,1456703951946180,0.3407975188962166,0.6369003185159794,0.6682283987015545,0.1246989347625401
588,1456703951967190,0.38086234676309133,0.5052453078884528,0.5173865623001732,0.18247673489997537
589,1456703951989196,0.40574885865664123,0.3808950055402106,0.3591412400810424,0.23385043405368694
590,1456703952006191,0.4080513758052687,0.2946756665326299,0.2357017335807296,0.26383055532900085
591,1456703952027490,0.38424560645051775,0.26478072684332854,0.1775316630693007,0.26337027928834866
592,1456703952050218,0.3375373137082035,0.29168394754381793,0.19431268184070222,0.23361047126481743
593,1456703952066212,0.2779049728354188,0.3592259421824208,0.2730272362940761,0.1857017624513214
594,1456703952087569,0.21871922959777973,0.44094257890271915,0.38337764257408224,0.13616152784343058
595,1456703952111226,0.17171725117161338,0.5088592072395702,0.48814030166039274,0.1001412057874311
596,1456703952126215,0.14312216943787595,0.5415668162421545,0.5546254632696049,0.08583059791238477
597,1456703952147227,0.1326370998550438,0.5291775276163295,0.5635195938148128,0.09228474161408906
598,1456703952170237,0.13512291143772628,0.474201767935285,0.5127458122327175,0.11115740385324682
599,1456703952186467,0.1435342175679634,0.3889098757405434,0.4159025900823423,0.13112713361623551
600,1456703952207449,0.15158524000918053,0.2907440800927317,0.29656664065053995,0.1427749173448271
601,1456703952229238,0.15517676278011464,0.19750798521895985,0.18075496005520839,0.14171055921069223
602,1456703952254466,0.15240814650273216,0.12355163140907922,0.08998205019501351,0.128912849947846
603,1456703952267474,0.14279473589002425,0.07749162839233902,0.03674712924724933,0.10886945554311638
604,1456703952290734,0.12666163389826485,0.06154538267591771,0.02324366688835791,0.08706438826044666
605,1456703952306739,0.10521919728636879,0.07232297690182395,0.04300224757975319,0.06811953986512073
606,1456703952327740,0.08094183133996191,0.10270299999577716,0.08440361289240277,0.05496984787231841
607,1456703952349490,0.05746413624151467,0.14416093892773443,0.1346727257554948,0.04875863409634433
608,1456703952366493,0.0386449574968606,0.1888065611763335,0.183075293673405,0.0490503706771467
609,1456703952387833,0.027210324919239557,0.2305856642011441,0.22253082592067683,0.054173330845375664
610,1456703952410760,0.023739771277654313,0.265516738393135,0.24957702957029132,0.061649069573592875
611,1456703952426494,0.02651510060225056,0.2912089098984352,0.2632658482271786,0.06868309120467116
612,1456703952447507,0.032255728120897074,0.3060912273360769,0.2638539565904916,0.07269753522951508
613,1456703952470516,0.037392456506769964,0.30879860048170066,0.2519987562985736,0.0718985177405346
614,1456703952486516,0.03936929803114285,0.2980669939194818,0.22873882516111504,0.06580592210913759
615,1456703952507834,0.03746912372174256,0.2732900869402802,0.1960733586261203,0.055553903958880775
616,1456703952531519,0.03285940611320729,0.23558587767927006,0.1576642168720123,0.04376006371606335
617,1456703952545528,0.02792764698315298,0.1889101155242276,0.11914415770367645,0.03393533450997355
618,1456703952567538,0.02530636941663191,0.1405924333010663,0.08768198787423973,0.029618865426928723
619,1456703952590868,0.027042131906250436,0.10077918900898739,0.07075167820917234,0.03349889552429963
620,1456703952606540,0.03414988905257413,0.08064885218897815,0.07440334402796044,0.04672151584115838
621,1456703952627832,0.046515785732449966,0.08978676947391778,0.10160825545713784,0.06849469098993508
622,1456703952649560,0.06295991167489516,0.13351148834197665,0.1512676639799349,0.09602992529281544
623,1456703952666561,0.08134014343640586,0.21098511444746776,0.2181814083126231,0.12485993992529273
624,1456703952689562,0.09881397996448758,0.3145954701191174,0.2938568929376333,0.14961601658278811
625,1456703952710820,0.11251900858010698,0.430653975306114,0.36778878425857997,0.16532261251550137
626,1456703952726564,0.12071672391621673,0.541239617998902,0.42889360188933057,0.16903748882667474
627,1456703952749581,0.12395232723658377,0.6270684913540514,0.4670502352925098,0.16130774038044604
628,1456703952770582,0.1254571693118672,0.6713034759810803,0.47492383951867684,0.146701213164985
629,1456703952786583,0.13022526666190987,0.663954323332927,0.45016227857773783,0.13283252869343867
630,1456703952809585,0.142890353376503,0.6059405889034801,0.3975667098420264,0.12784820419020876
631,1456703952830587,0.16533921571766175,0.5113124646920119,0.3302054879776416,0.13710420342069915
632,1456703952846595,0.1953935866778582,0.4060347805881978,0.2681704027318604,0.16042965415626967
633,1456703952868827,0.22743996933392252,0.32252383553968855,0.23422117646907026,0.19144293245507413
634,1456703952890604,0.254701450122931,0.29076979599572583,0.24696533443885593,0.21957277585696985
635,1456703952912604,0.27178223330381424,0.32874446768109905,0.3138606218945652,0.2340650005358875
636,1456703952936588,0.2760768221370618,0.4357541829933184,0.42710638743166285,0.22818074364509053
637,1456703952950839,0.2676693889458725,0.5915505087971994,0.5645984629409888,0.20171575117253468
638,1456703952973841,0.24859457321455114,0.7616228075113107,0.695902418619293,0.1609107478281554
639,1456703952987841,0.22271698634642342,0.9066197941504103,0.7910148615308984,0.11616478932516794
640,1456703953010843,0.19654074260145865,0.9926998092593727,0.8287642028015423,0.07886296924940371
641,1456703953032851,0.17968132399862113,1.0,0.8022824136586746,0.05857049030711747
642,1456703953048862,0.18310585151160383,0.9274768306789439,0.7203586301591529,0.06108441318418442
643,1456703953069868,0.2146017469695303,0.7932322324522761,0.6047156357599996,0.08720775325921452
644,1456703953092862,0.27344608562946954,0.6300188001133927,0.4839691577184385,0.13218481339543137
645,1456703953108863,0.34780022895183194,0.4764873304080571,0.3856640115449565,0.18623608637885838
646,1456703953129867,0.41745037700016124,0.36625409714277224,0.32864277415085413,0.23676442633819564
647,1456703953151890,0.46147202468425885,0.31835276567028026,0.3184268844337026,0.27206568317671337
648,1456703953168884,0.46709216353619876,0.3326908038275599,0.3472900313555379,0.2851674431103084
649,1456703953190885,0.43487362713157074,0.392102700231319,0.39849411551678177,0.27591403251656665
650,1456703953219889,0.3775335099247794,0.46963125265812417,0.45232714717740197,0.25033965836839345
651,1456703953228889,0.31361845775351566,0.5377179494866319,0.4914325425955814,0.21792313618032436
652,1456703953249948,0.25976925354418634,0.575914029228471,0.5041478041900509,0.1880899478111167
653,1456703953271906,0.22508426839807325,0.5749769268479864,0.4858665131739255,0.16713328301443428
654,1456703953288907,0.2093624820380055,0.536856541990856,0.4389179051674263,0.15643223924341118
655,1456703953310168,0.20525017531860165,0.4714824249861653,0.37126238273537315,0.15267535524408024
656,1456703953332129,0.20291100886871072,0.39209175890896125,0.2941189161058231,0.15012760892265756
657,1456703953349145,0.19488242749232276,0.3109383124362767,0.218916261882507,0.14378307771199905
658,1456703953370147,0.17878713607190103,0.2366817083519744,0.15446990308147746,0.13158456492787582
659,1456703953392409,0.1569097993540692,0.17386273046375272,0.10541595446051039,0.11461514307570482
660,1456703953409147,0.13362941162618835,0.12399507817075871,0.07237908190798084,0.09570506873411466
661,1456703953430150,0.11278539301412027,0.0872742511317893,0.05346690566932564,0.07782449287019243
662,1456703953452585,0.09647034420319694,0.06388952218880836,0.0461038403009101,0.06327427964499723
663,1456703953468733,0.08531632318870758,0.05437182142598342,0.048279455457136425,0.053702605170045964
664,1456703953489729,0.0793849522058773,0.05905612726814458,0.05883405224614986,0.050356229761570136
665,1456703953512607,0.0787151704119746,0.07721959981212737,0.07700693741785233,0.05402320447019181
666,1456703953528729,0.08308729097476182,0.1065270771091984,0.10177499416978457,0.06453758434956518
667,1456703953551523,0.09123564199135743,0.143118430705326,0.13144582214718628,0.08015596600002992
668,1456703953572524,0.1002556169519078,0.18228214028511158,0.1637047781799281,0.09735855440326897
669,1456703953588525,0.10595456296198755,0.21941471455417608,0.19602619639227836,0.111506165050516
670,1456703953610757,0.10430018986591184,0.25090931173760794,0.22615850505191148,0.11830168209504674
671,1456703953640535,0.09331032516619997,0.27468000242174223,0.25238156095916403,0.11544649900870468
672,1456703953648536,0.07430191935400547,0.2901642550832795,0.2734336838309443,0.10365370664001515
673,1456703953671546,0.05171616055619114,0.29783773670204816,0.28824721594567526,0.08647295157023026
674,1456703953692755,0.03155928905959907,0.29846887313710474,0.2957067208025187,0.06899734185017793
675,1456703953708725,0.019242647626864194,0.29244899908415156,0.2945621982166694,0.05603681695725659
676,1456703953731714,0.01778646380230284,0.2795061770465042,0.2835619570798044,0.05048474405989473
677,1456703953752775,0.026995780996349642,0.2589645603126904,0.2618715900345973,0.05243342097288254
678,1456703953768776,0.0437100072430333,0.23050149150831176,0.2297949119674043,0.059304708672525144
679,1456703953791777,0.06288021722215903,0.19513999688839456,0.18961656274221458,0.06694381020874497
680,1456703953812779,0.07907110410973454,0.15605692910591826,0.14614250314743488,0.07128545107689474
681,1456703953828779,0.08792938466468274,0.11875948904502058,0.10645036896785603,0.06994373132832961
682,1456703953850715,0.08721808327566062,0.09035050395541475,0.0786217062680164,0.06309147724792047
683,1456703953872750,0.07723354005592042,0.07796613102719875,0.06972561192255375,0.053338264977072336
684,1456703953888721,0.060680806113742776,0.086894036419536,0.08378322656153193,0.04478130731243848
685,1456703953918720,0.042178363000154706,0.11910605111153458,0.12057282480487368,0.041702418485104864
686,1456703953931722,0.027484274032316357,0.17275998179063723,0.17580387620655538,0.047400366125805025
687,1456703953948231,0.02246379803015716,0.24271692358065416,0.24254054834997824,0.06345304079456493
688,1456703953970740,0.03185845039892488,0.3216352796635724,0.31315837423419657,0.08944282392067138
689,1456703953991748,0.058024932496538596,0.40106742957277736,0.38091458624472735,0.12300932426176486
690,1456703954007743,0.0999360803281059,0.47223312762134545,0.44049973240842566,0.1601145971758486
691,1456703954030757,0.15283381853076428,0.5265471651019292,0.4875474872582007,0.1955555904093938
692,1456703954053762,0.2088905713453901,0.5562666457078043,0.5176971847410895,0.22385144324064202
693,1456703954067816,0.2589459081797418,0.5556384989394931,0.5261301892994139,0.24051161135084004
694,1456703954090765,0.2948566171140426,0.5226459960943616,0.5083780238185757,0.2433511209636855
695,1456703954112771,0.31154244525611013,0.46095725456779174,0.4626175192716146,0.2332030103062173
696,1456703954128765,0.30791450675197024,0.3811694253372057,0.39274432666350656,0.21349585799181658
697,1456703954151070,0.2866073628391008,0.30023497445362457,0.3106082138055272,0.18884388530065474
698,1456703954172075,0.2530711578292228,0.23837529760696044,0.23554802678886572,0.1634899835367424
699,1456703954195335,0.2144187781552657,0.2138978092999963,0.19031318610265108,0.14042012296686243
700,1456703954211072,0.17789413431234244,0.23763822039810556,0.19433552588218056,0.12129493352464371
701,1456703954232134,0.14892387182495093,0.309303719077361,0.2569337498568577,0.10680706559863223
702,1456703954255130,0.12945881670434745,0.41720436309501174,0.37320759153787636,0.09708230885051788
703,1456703954271094,0.11771354166508644,0.541221977407136,0.5240684216285755,0.09196241790675933
704,1456703954292319,0.10983643495257933,0.6575679054013855,0.6801683977866172,0.09111489470664749
705,1456703954315289,0.10284990272152027,0.7436889111634314,0.8085087854166062,0.09401476791368638
706,1456703954331347,0.09723011623120749,0.782382435641719,0.8802978573736868,0.1000011937853334
707,1456703954360455,0.09745284647736864,0.7649574689974374,0.8785096550928317,0.10858176962961834
708,1456703954375161,0.1098902687143684,0.6934132157805921,0.8031938847984733,0.11981506282772093
709,1456703954391140,0.13901889179066698,0.5810809146629708,0.6724395098956278,0.13428402741461426
710,1456703954412422,0.18399422382322356,0.4507204804986498,0.517848852385854,0.15234946032046487
711,1456703954435476,0.23758687055663583,0.32953558192432075,0.37548615121858414,0.17303884508172174
712,1456703954450987,0.2882581133647114,0.2420434030813228,0.27544303170273554,0.19344095530779878
713,1456703954473987,0.3243947494003567,0.20323292523690378,0.23393987002397668,0.20921506512381532
714,1456703954495251,0.3384855570793319,0.2147169356311697,0.2505734684854915,0.2160165220592467
715,1456703954510989,0.3292329003654555,0.2653035948195721,0.3107728384970064,0.2111333253513784
716,1456703954531996,0.3010601927699298,0.33548809502768834,0.3915092306764684,0.1947119267850392
717,1456703954555041,0.2618755330261255,0.4039475128277688,0.4678930695672434,0.17013120195202877
718,1456703954571037,0.22033591174965075,0.45366116822132696,0.5190091415381699,0.1431610160597274
719,1456703954594004,0.18355787087055442,0.47564699125309823,0.5320782899002688,0.11995529867242521
720,1456703954615005,0.1558580305181366,0.4693255744578331,0.5043441014864903,0.10473435254980196
721,1456703954631200,0.13870324663916472,0.43996155989824204,0.4423664520525932,0.09844075653146002
722,1456703954654226,0.13153826943454286,0.3949100102451821,0.35906743245909706,0.09909490839337906
723,1456703954675509,0.1327953716067341,0.34075509217337496,0.2696786928046762,0.10341365744559405
724,1456703954691504,0.14043164742286332,0.2825442063208583,0.1880355976281882,0.10848558758049287
725,1456703954714231,0.15181889823713038,0.22474124087968805,0.1241690790179743,0.11253032413950037
726,1456703954735786,0.16347348127707018,0.17238307728225924,0.0833118999904756,0.11469038118448709
727,1456703954751542,0.17140684739722023,0.13104906256789578,0.06595375441171523,0.11454348345789898
728,1456703954774542,0.17239906042703695,0.10543971812112256,0.0686281446919139,0.1119954042811967
729,1456703954795791,0.16555633487969743,0.09756187027084215,0.08529496475427342,0.10758857484442044
730,1456703954811544,0.15299617276870753,0.10580192876032041,0.10912292578660435,0.1027259137065337
731,1456703954834303,0.1389960815223475,0.1254932897168012,0.13423983357797478,0.09936604509054317
732,1456703954855546,0.12801755484769523,0.15063413365761258,0.15691576359784054,0.09922863473482446
733,1456703954871215,0.1227024595109164,0.17585537993276304,0.17582844325902142,0.10292519040628395
734,1456703954894181,0.12283165588979171,0.19776334875638182,0.19141559083924758,0.10946749536356416
735,1456703954915487,0.12566358106983755,0.2152055329099368,0.20465285186046642,0.11642746164794801
736,1456703954931184,0.12738612911070477,0.22854756813576763,0.2158032912545348,0.1207296877653731
737,1456703954954222,0.12485488058070073,0.2384572109048051,0.22370624855563323,0.1197294799727451
738,1456703954975223,0.11672907073165202,0.2448222323217541,0.22594876669258637,0.11210050218308373
739,1456703954991485,0.10367827179424297,0.24628765603063768,0.21983904817677666,0.09826256335174158
740,1456703955014227,0.08797276618316086,0.24059848118194466,0.20371186754558313,0.08036784768979477
741,1456703955035748,0.07286561756383104,0.22560926320249855,0.1779867885495258,0.06191380428240243
742,1456703955051029,0.06184679757260719,0.2005686472051011,0.14558135426151805,0.04695372379454304
743,1456703955074030,0.05771154370388047,0.16716755704873013,0.11155136890776052,0.0389665860763543
744,1456703955095292,0.06164346607776127,0.12988797805968666,0.08203847783859268,0.03975290198152627
745,1456703955111030,0.07278663944744779,0.09540386237819136,0.06277476843475077,0.048896250180783314
746,1456703955134678,0.08867601163499944,0.07112252465545889,0.05757308999087936,0.06411481950342691
747,1456703955155559,0.10640180319152096,0.06331437765382833,0.06733564477088995,0.08233346601735371
748,1456703955171503,0.12383548134300863,0.07549607964219532,0.089986053505847,0.10086586148207755
749,1456703955194534,0.140108395953687,0.10763930918247892,0.121346819278605,0.1180244294685608
750,1456703955215308,0.15503654868083544,0.15636954769272432,0.15654556534840153,0.13287260965531955
751,1456703955231507,0.16799664612861254,0.2158473827680931,0.19131535995113708,0.14444745188245756
752,1456703955253713,0.1772130696692054,0.2788152971710241,0.22267261765237586,0.15115689201784163
753,1456703955275713,0.18014523924781287,0.3374515000571517,0.2488067913151563,0.150931001453422
754,1456703955291714,0.17490312668147145,0.3840195754117886,0.2684095263420135,0.14220030772403056
755,1456703955314717,0.16188914016478465,0.4115664582583446,0.27995381133371294,0.12521713789118732
756,1456703955335736,0.14459401463377494,0.41493485469896674,0.28149479184756254,0.10293405607539916
757,1456703955351245,0.12886770139368656,0.3921195376090977,0.2713308818951873,0.08079400554823345
758,1456703955373284,0.12089804193405214,0.3456330708313209,0.2493771719256969,0.06534158823120112
759,1456703955395614,0.12496101048705216,0.28323621081360373,0.2185696911686751,0.0622084483939904
760,1456703955411248,0.14209182961338693,0.21733534292609058,0.18534913838883416,0.07431955826935899
761,1456703955433250,0.17011798239109707,0.16272038044542655,0.15853130403483617,0.10095085721164972
762,1456703955455772,0.2046533164360683,0.13306448881018454,0.14667980890593751,0.13780601139268095
763,1456703955470739,0.24034864400700284,0.13732436574752313,0.15507134904812836,0.1779560724109484
764,1456703955492558,0.2719766915663281,0.17731916926178992,0.18379935354145654,0.21341427152364142
765,1456703955515703,0.29532733199111355,0.2471842332741696,0.22800630602385175,0.2371003414750731
766,1456703955537547,0.3079712223615948,0.33457792969215455,0.27991975963896465,0.24477506589801323
767,1456703955552791,0.3097154097293911,0.4230909940791557,0.331261583659831,0.23627442926050085
768,1456703955575790,0.3024180810805308,0.4953908001206478,0.3746337470713568,0.21540136853543904
769,1456703955597792,0.2890985654881722,0.5368109619131622,0.40367824924068657,0.18838192539629203
770,1456703955612792,0.2727704817308406,0.5389197013556418,0.41307240842577475,0.16155460787957363
771,1456703955637607,0.2555646596792802,0.5020887239485151,0.39944679824716134,0.1393047969261163
772,1456703955656912,0.2383731471313148,0.43579173087797296,0.3630214234817876,0.1229925622353467
773,1456703955672907,0.2209583345295606,0.35588770233091077,0.30856568435166176,0.11115560933632801
774,1456703955695909,0.2025120212260025,0.27949102333808123,0.2445537256253773,0.10087559314599524
775,1456703955717125,0.18260664752462094,0.21944557918553514,0.18083498469258105,0.08975655537658356
776,1456703955732912,0.1620801309654929,0.18087869074899401,0.12621975901678123,0.07754272786977776
777,1456703955756733,0.14314921796442814,0.161297218230161,0.0870610181725313,0.0664440838107109
778,1456703955777734,0.12850153432988767,0.15375031465887407,0.06679312815956794,0.05993659460246109
779,1456703955792735,0.11992587848082319,0.15104774958439202,0.06580178677080004,0.060716321959439115
780,1456703955815737,0.11739766895701446,0.14887566730752047,0.08137998201686987,0.06897723058066514
781,1456703955837700,0.11918030730695467,0.1467138918143552,0.10812997733227812,0.0819829387269736
782,1456703955860042,0.122811445622712,0.14675879839037898,0.13918487608886895,0.09517066091464356
783,1456703955876036,0.12631682772976016,0.15181463051580155,0.16801845483621564,0.10418092465538029
784,1456703955897039,0.12893953573187406,0.1632217073890474,0.1900253061914815,0.10673862373973161
785,1456703955913040,0.13105371026075036,0.17962218666010604,0.20309010345045625,0.10346217696860983
786,1456703955936656,0.13343406031953436,0.1969577339930427,0.20702927495894216,0.09728012157493002
787,1456703955957345,0.13638859714831392,0.20963517705646345,0.20251935057339374,0.09182501751371268
788,1456703955973345,0.13929179032503264,0.21237779646606353,0.19034185602871603,0.08963347271745326
789,1456703955996347,0.14075718120627603,0.20205601628684655,0.17136868384367082,0.09101335675869474
790,1456703956017355,0.13927649946202442,0.17885300182356276,0.1470849215709378,0.09406160461921172
791,1456703956033349,0.13394753717154864,0.14639771872151502,0.12009398495302327,0.09574466784460246
792,1456703956056173,0.1249754771428553,0.11083397015689006,0.09412683918834494,0.09345707539061877
793,1456703956077475,0.11380655689780844,0.07908969587482874,0.07339354379079178,0.08629644536943096
794,1456703956093176,0.1029116513787906,0.05685103632911108,0.06146001320303297,0.07553038490308246
795,1456703956116176,0.09527259648811885,0.04689656887813411,0.06009773454739756,0.06416406958552093
796,1456703956139469,0.09355203239258714,0.04840190959122444,0.06862830864070717,0.05583476659240862
797,1456703956153477,0.09900497512966458,0.05750608705293619,0.0840937676914178,0.05341579073118497
798,1456703956176648,0.11052301331809837,0.06892565909354341,0.1022201348291394,0.05781532550644162
799,1456703956196479,0.12443550384222359,0.07794996122297695,0.118794185681368,0.0674670117638247
800,1456703956212606,0.13545321955139045,0.0819929627419795,0.13088507721207368,0.07881197085578491
801,1456703956236223,0.138538497962751,0.08111051118592967,0.1374058484941605,0.08767641959597208
802,1456703956256741,0.13094012330024243,0.077405314442067,0.13884407055860898,0.09099914835743612
803,1456703956272734,0.11345302603409396,0.0737572316405161,0.1364341166808974,0.08808335954329075
804,1456703956296737,0.09027082385622381,0.07254315873677142,0.131307390637694,0.08069899110288521
805,1456703956317736,0.0675047758480055,0.07485403155676569,0.12408234433254003,0.07200039781035014
806,1456703956332738,0.05112626852083557,0.08034837302972217,0.11504335498059456,0.06494404787450524
807,1456703956355674,0.04523835567367985,0.08757863649003696,0.10472395732597357,0.061101317548807696
808,1456703956377544,0.05115798170652778,0.09453517261389244,0.09450240575633857,0.06033368097991265
809,1456703956392713,0.06728889002800231,0.09922046521777714,0.08678586220369743,0.0611969523222461
810,1456703956416545,0.08959520501225822,0.10015100586112172,0.08452887381367508,0.0616572422519813
811,1456703956437629,0.11256490846185772,0.09669993765242785,0.09018613671598401,0.05978474200349371
812,1456703956452847,0.13058961089960006,0.08918284901175214,0.10456613225677938,0.054303335924112996
813,1456703956475850,0.13958431317463402,0.07866022642829536,0.12614915740046037,0.045023613438826535
814,1456703956498850,0.13849832079822252,0.06659558328981188,0.151171996096801,0.03319772910174684
815,1456703956512851,0.13019749643297993,0.054614855152797494,0.17441293629842103,0.02169605151341749
816,1456703956536361,0.12115440123673109,0.04450174134615782,0.1904230222867143,0.014731999690975845
817,1456703956558870,0.11965460808218936,0.038291163461052345,0.194930907639344,0.016876355640345793
818,1456703956579870,0.13282202276621483,0.038141370895603204,0.18609755691294688,0.03141776711612862
819,1456703956595871,0.16339884087005183,0.04577082286536416,0.16518303313364874,0.058588966100235874
820,1456703956618872,0.20756961761973472,0.06158785857155488,0.1362484221314142,0.09449679342902177
821,1456703956632873,0.25504076134720627,0.08396745732482715,0.10492757270715422,0.1315411963738467
822,1456703956656185,0.29193759974100164,0.10917983072326375,0.07682571270378172,0.16058445710085145
823,1456703956679186,0.30579633159685277,0.1321752580484763,0.05625310706584167,0.17423701380816065
824,1456703956693187,0.2905448975824031,0.14796945505423423,0.04564721670629514,0.16981187789988458
825,1456703956716188,0.24899810953433418,0.15307432063757767,0.0455692478838918,0.15041687126633826
826,1456703956739483,0.19160405138313855,0.14645395725441465,0.05498353617633948,0.12355123228887613
827,1456703956760326,0.13219278462460285,0.12975223174339592,0.07161951103774249,0.09791777963723092
828,1456703956775992,0.08290956459260944,0.10680747664782232,0.09233654009104009,0.08005561403915018
829,1456703956798997,0.05060534163959179,0.08262149963564974,0.11347447299730927,0.07232534199989105
830,1456703956820358,0.035902394572710015,0.06203069277773954,0.13123354285527822,0.07290955551644918
831,1456703956836662,0.03469717774732844,0.048418653988247205,0.1421806226316226,0.07743689574552026
832,1456703956859014,0.04083282998940394,0.042880495824926264,0.14393273492250627,0.08119773667246749
833,1456703956880014,0.04853476106593013,0.04416422184921594,0.13588865400248162,0.08092665702566058
834,1456703956896015,0.05379996694770388,0.04941339834022605,0.1196733679974864,0.07559471068768737
835,1456703956919016,0.05471080066800875,0.055365087136329844,0.09891731172101771,0.06621082009518814
836,1456703956940536,0.051111888003389006,0.05946780926702157,0.0782371268379666,0.05498987776786834
837,1456703956956046,0.04409150832308489,0.06049234313473218,0.061737494733187875,0.04432851544071163
838,1456703956979048,0.03545458815235813,0.058509026455425495,0.05171241599380336,0.03594421333706608
839,1456703957000316,0.027198327873195732,0.05440032051788535,0.04817408369959307,0.030416540604960993
840,1456703957016276,0.021021156047530416,0.0492295733016272,0.04936544483207433,0.027237615506998856
841,1456703957039533,0.017958875367583227,0.04376892345723429,0.052868647263470486,0.02528711719821512
842,1456703957060581,0.018215454156252267,0.03834943532429266,0.05669233953228713,0.023460686082766732
843,1456703957076527,0.021190255618569,0.03301475858099883,0.05988398528118582,0.021143522353376656
844,1456703957106284,0.02567903409280306,0.027818141661648983,0.06255204992044792,0.018360979665469488
845,1456703957120621,0.030219141540188413,0.023058828482197993,0.06545213863461559,0.01563006308555942
846,1456703957136286,0.033510521264417295,0.01931588675047613,0.0693944160349228,0.013652976899974903
847,1456703957159309,0.03478999637111111,0.017262400359376207,0.07470211778950046,0.013006730749759292
848,1456703957180325,0.03402110790106153,0.017362463905362474,0.08087561566859049,0.013930144341099572
849,1456703957196313,0.031818281696997006,0.01961030933396352,0.08655853787555735,0.016240772861936367
850,1456703957219312,0.0291372472034747,0.023444335107195704,0.08986077443039307,0.01936659800416154
851,1456703957240699,0.02686634864424099,0.027879338557566313,0.08900166111578309,0.022467975609834975
852,1456703957256137,0.025478770735426412,0.031796463511133875,0.08306312095103315,0.024634972894624633
853,1456703957278137,0.02486017136451244,0.03426407648516744,0.07249110817155632,0.025128766012254798
854,1456703957300180,0.024366616079920377,0.03476260061473057,0.05902552624153486,0.023585953300108556
855,1456703957316174,0.02310950272113467,0.03324452662806497,0.045015525412616546,0.020085359651551806
856,1456703957338356,0.02037824728289366,0.030042698827421492,0.032426113630600134,0.015045141745714615
857,1456703957360395,0.016015796586133606,0.025703968132468617,0.022032135381226985,0.009029138491481636
858,1456703957376580,0.010545206506888,0.020839765699524213,0.013207759852496078,0.002589401387976489
