,timestamp,emg1,emg2,emg3,emg4,emg5,emg6,emg7,emg8
0,1456703940361362,0.001318632241314227,0.0,0.00438939130645565,0.018467038597362897,0.008995817368431322,0.01615095805541524,0.012720805955903632,0.004842118750838988
1,1456703940361362,0.004554999979093652,0.011665807213236085,0.038187772203708774,0.04690014570519964,0.08841306950486194,0.05377459136844145,0.017319724612641068,0.012246286718157284
2,1456703940362363,0.007822740044155304,0.02330150780112737,0.07135824417341184,0.0752663917294896,0.16673188863568003,0.09144426263198356,0.021887120363736252,0.019562853978642415
3,1456703940362363,0.011083069468780501,0.03472653832771073,0.10354314073302338,0.10314323833957012,0.24274000268058651,0.12878935855293194,0.026366818595415266,0.02670126859765789
4,1456703940365363,0.014298736319905104,0.0457699486224106,0.13440879950174336,0.13012362040399736,0.31528511252542485,0.16543976342582953,0.030704944623569128,0.03357557055607693
5,1456703940365363,0.01743494819164726,0.05627492780705743,0.16365365012199062,0.15582633548676605,0.3833049108322802,0.20103317580607882,0.034851254444540423,0.040106415521066204
6,1456703940366578,0.02046014564863333,0.06610275969961346,0.19101510607027292,0.1799051272240578,0.4458530994484797,0.23522168400721807,0.038760295805882486,0.0462228729945102
7,1456703940366578,0.02334660019276728,0.07513607086368088,0.21627502674301818,0.20205618614026358,0.5021206602662596,0.26767755620449024,0.04239235582243047,0.05186395066609085
8,1456703940371607,0.026070827568175522,0.08328127216522674,0.2392636065942574,0.22202392866726883,0.5514519275091179,0.2980982643159493,0.04571416893782387,0.05697980936746961
9,1456703940371607,0.02861381836051475,0.09047013496920889,0.2598616256833898,0.2396050179588015,0.593355213710735,0.3262107910784565,0.04869937887183078,0.06153264205980515
10,1456703940380363,0.030961098539967077,0.09666047542482578,0.2780010454213647,0.25465064762607936,0.6275079066778801,0.35177530060248074,0.05132876437837323,0.06549719946853154
11,1456703940380363,0.033102640344439604,0.10183594732080246,0.29366397658908794,0.2670671542182493,0.6537561489926617,0.37458827642784337,0.05359024937518108,0.06886095613966986
12,1456703940386404,0.03503264799180056,0.10600497923243139,0.3068801162347965,0.27681508894230317,0.672109457512521,0.3944852310349963,0.055478725439351555,0.07162392159572405
13,1456703940386404,0.03674924435943628,0.10919893846989609,0.3177228415445368,0.28390695709996794,0.6827308959116285,0.41134306981480956,0.05699571921862351,0.07379811023150486
14,1456703940401369,0.03825408463805722,0.11146964966461129,0.3263042240965777,0.28840389124439003,0.6859236061128406,0.425082161356697,0.058148937269200354,0.07540669323095961
15,1456703940401369,0.03955192111368495,0.11288642565932948,0.3327692608262618,0.29041153913857104,0.6821145901868932,0.4356681233927109,0.05895171667649867,0.0764828692151799
16,1456703940410400,0.040650140732717104,0.11353277971583425,0.3372896170874636,0.2900754251997995,0.6718366262329037,0.44311327485939855,0.059422404676320754,0.0770685052333599
17,1456703940410400,0.04155829519175594,0.11350298515320023,0.34005716392344304,0.28757600158842206,0.6557091390541911,0.44747763847034244,0.05958368664787398,0.0772126097393925
18,1456703940424885,0.04228764159886204,0.11289863505289037,0.34127757255451624,0.28312355536162287,0.6344187537193304,0.4488693255740075,0.05946187927184493,0.07696970067631484
19,1456703940424885,0.042850709231987825,0.1118253333038351,0.3411641954058441,0.2769530872745125,0.6087001472213343,0.44744411294914405,0.05908620347870086,0.07639812681451064
20,1456703940432881,0.043260904572964665,0.11038962293734647,0.33993241083373965,0.26931923234920946,0.579317688432057,0.44340403230196146,0.05848804968903959,0.07555839407969255
21,1456703940432881,0.04353216339041106,0.10869623175077102,0.3377945496806694,0.2604912606915586,0.547048228796057,0.43699482130757283,0.05770024631089141,0.0745115438094766
22,1456703940439390,0.043678655574039,0.10684568915084783,0.3349554711941785,0.2507481804632766,0.5126652873219656,0.4285021102916258,0.05675634264476702,0.07331762549500138
23,1456703940439390,0.04371454561489023,0.10493234182904632,0.3316088160660887,0.2403739541287521,0.4769247726110459,0.4182462502967578,0.05568991927391137,0.07203430000545404
24,1456703940487392,0.043653809141615714,0.10304277186410207,0.327933927163992,0.22965282685264932,0.4405523042336771,0.40657576000799256,0.054533940382540384,0.07071560091919095
25,1456703940487392,0.043510103808519815,0.10125460340850534,0.3240933937769521,0.21886475657091972,0.40423213814158787,0.39385948784971914,0.053320160812814064,0.06941087418475302
26,1456703940488638,0.043296690646199315,0.09963567482018303,0.320231158594052,0.20828093798805022,0.3685976727660376,0.3804777152346005,0.0520785965984312,0.06816391093191229
27,1456703940488638,0.04302639908589702,0.0982435488142884,0.31647114157428485,0.19815943245924925,0.3342235149886769,0.3668125318816084,0.05083706389540138,0.06701228305738985
28,1456703940491393,0.04271162480470755,0.09712532936711943,0.3129163697863173,0.18874094979545322,0.30161910569192313,0.35323788439719556,0.04962078914925509,0.065986884552331
29,1456703940491393,0.0423643443249965,0.09631774894755085,0.30964862643228297,0.18024486466805315,0.27122392251473854,0.3401097302095914,0.04845209288993628,0.06511167392465411
30,1456703940492393,0.04199612512448484,0.0958474844172572,0.3067286271947107,0.17286557287049983,0.2434042739785877,0.3277567148887259,0.04735015057111344,0.06440360646631534
31,1456703940492393,0.041618107468613545,0.09573165590743225,0.30419670968628343,0.16676929249114528,0.21845166723325268,0.3164717407862746,0.04633083533427971,0.06387274118928482
32,1456703940498587,0.04124093698549356,0.09597845943475634,0.30207400581539273,0.16209139784677784,0.19658268228978748,0.3065047275088549,0.04540664728211317,0.06352250625226868
33,1456703940498587,0.040874635440232954,0.09658787903357394,0.30036406219969924,0.1589343524050299,0.1779402399572316,0.2980567921675669,0.04458673117723088,0.06335010758573868
34,1456703940507393,0.04052840763767068,0.09755241764667615,0.29905486272296805,0.1573662898372701,0.16259612302602805,0.29127600496472567,0.04387698118166246,0.06334706637942646
35,1456703940507393,0.040210390858068906,0.09885778254931127,0.29812117488814355,0.15742028204120004,0.15055459913105354,0.28625480806036113,0.043280228660208954,0.06349987004275885
36,1456703940513664,0.03992736000775028,0.10048346902064002,0.2975270959455029,0.15909432608194657,0.14175698911822718,0.2830291259037206,0.04279650669252936,0.06379071742717547
37,1456703940513664,0.03968440925411251,0.10240321097794008,0.2972286427822068,0.1623520730553752,0.1360870227873328,0.28157914436074044,0.04242338161805687,0.06419833426717188
38,1456703940529400,0.03948463841198324,0.10458530459006132,0.29717623586763614,0.16712430951520318,0.13337683139790069,0.281831693292701,0.042156337341382875,0.06469883136670952
39,1456703940529400,0.03932887621662133,0.10699284558437044,0.2973169732019521,0.1733111889382569,0.13341344696481028,0.28366412691846676,0.04198919348288242,0.06526657660573945
40,1456703940536406,0.03921547146609577,0.10958394054873627,0.2975966505452119,0.1807851955603331,0.13594570246855997,0.2869095497117626,0.04191453590258823,0.06587505206631127
41,1456703940536406,0.03914017819300671,0.112311957843687,0.29796153206545134,0.18939480093906252,0.14069144259898264,0.2913631833436386,0.04192413880880026,0.06649767052046253
42,1456703940545407,0.039096153939093,0.11512588275159884,0.29835990248547384,0.1989687455333417,0.147344959340495,0.29678962678009574,0.04200936093209114,0.06710853231362011
43,1456703940545407,0.03907408148534519,0.11797083660817319,0.298743442795683,0.2093208499989745,0.1555845635021038,0.30293074152419486,0.04216150286958255,0.06768311240439455
44,1456703940558408,0.03906241497060144,0.12078880758390795,0.29906846829551703,0.22025523629064847,0.1650801926638669,0.30951389415544794,0.04237211777945355,0.06819887349640298
45,1456703940558408,0.0390477426683305,0.12351962035248869,0.29929704766001725,0.23157181321127868,0.17550093750876988,0.31626029149390594,0.04263327168708333,0.06863580210037436
46,1456703940567408,0.039015251712618305,0.12610214614091064,0.29939799230954445,0.24307185163013034,0.18652234314273888,0.32289314128496155,0.04293775065220651,0.06897686163157007
47,1456703940567408,0.03894927462994033,0.1284757280086654,0.29934768587400096,0.2545634417541127,0.19783331223217898,0.3291453755323378,0.04327920950745214,0.0692083536623311
48,1456703940573409,0.038833893254290326,0.13058177297787169,0.2991307258743235,0.2658665912413958,0.2091424098684585,0.33476670137190206,0.04365225379052551,0.06932017666183024
49,1456703940573409,0.038653572917490296,0.13236544597329172,0.2987403644611359,0.2768176960648596,0.22018336139629185,0.33952979645094855,0.04405244701803886,0.06930597126485093
50,1456703940588410,0.03839379961936645,0.13377738999721003,0.29817874175164594,0.2872731123157638,0.2307195595925794,0.34323552821712466,0.044476240683365004,0.06916314393356957
51,1456703940588410,0.03804169516679539,0.1347753887822048,0.2974568908137877,0.29711159662196307,0.2405474567843467,0.34571713554495725,0.04492083170755265,0.06889276791355045
52,1456703940596410,0.03758658906962229,0.13532588041195068,0.29659446100372855,0.30623547361464554,0.2494987930131327,0.34684336239281494,0.04538395905867039,0.06849936950579319
53,1456703940596410,0.03702053054165717,0.13540522775828906,0.29561907832630474,0.3145705152693702,0.2574416809176242,0.3465205785583721,0.04586365743726334,0.06799061589855719
54,1456703940605410,0.03633872834582099,0.13500066327407878,0.2945652701329492,0.3220646462039059,0.2642806175208319,0.3446939581670786,0.046357990612709454,0.0673769270394843
55,1456703940605410,0.03553990887619117,0.13411085742116588,0.29347294301004745,0.3286856921005424,0.2699555226929661,0.34134780086454647,0.04686478867179403,0.06667103725644732
56,1456703940618915,0.03462658345432834,0.13274610560846187,0.292385493890634,0.3344184533810228,0.27443992526597905,0.336505072632782,0.04738141207372107,0.06588753104357646
57,1456703940618915,0.03360521624429269,0.13092816967246287,0.2913477075693986,0.3392614139928453,0.2777384389793766,0.3302262310917565,0.04790456231731592,0.06504237269658869
58,1456703940627917,0.032486286503898204,0.12868983005544068,0.29040362062681335,0.3432233903731054,0.27988368824543064,0.3226074039358687,0.04843015483542663,0.06415244466929075
59,1456703940627917,0.031284243423596904,0.12607420386892704,0.28959452067743363,0.34632039325850955,0.28093285277275726,0.31377801133846756,0.04895326443981796,0.06323510619874305
60,1456703940634135,0.030017357165914332,0.12313387476199691,0.2889572220082078,0.34857291949048136,0.2809639996394027,0.30389795034106704,0.04946814779487306,0.062307781186604884
61,1456703940634135,0.028707473363930692,0.11992987268703362,0.28852272706953064,0.35000381843378153,0.280072357401893,0.2931544715872486,0.04996834204209585,0.06138758239272171
62,1456703940648422,0.027379678366334988,0.11653053509714198,0.28831535292848753,0.35063680020343024,0.27836665268688343,0.2817588615996886,0.050446834361902844,0.06049097784351156
63,1456703940648422,0.02606187971824337,0.11301027190814755,0.288352370700718,0.350495585153599,0.27596558169142454,0.2699430023716118,0.05089629335908814,0.059633503129521356
64,1456703940656637,0.0247843034167532,0.1094482455761608,0.288644166900823,0.3496036397961909,0.2729944485652204,0.257955841258804,0.051309349085120574,0.058829518340241166
65,1456703940656637,0.023578908313297807,0.10592697177067659,0.28919488564595747,0.3479843943766122,0.2695819878903775,0.246059794113226,0.051678904961610116,0.05809200312740742
66,1456703940665423,0.022478719043007394,0.10253085098567732,0.29000345651277704,0.345661789938323,0.2658573988695136,0.23452712195892225,0.05199846323491199,0.05743238160902838
67,1456703940665423,0.02151708194925639,0.09934465419415167,0.2910648695302423,0.3426609792142862,0.26194763826239487,0.2236363394384335,0.05226244681308466,0.05686037085956833
68,1456703940678624,0.020726853526777153,0.09645199662134966,0.2923715460338605,0.3390090329276926,0.2579750303618905,0.21366870923345305,0.05246650419616102,0.05638385052808708
69,1456703940678624,0.020139537114648314,0.09393383530011987,0.2939146829906948,0.33473557664773895,0.2540552492881644,0.20490485144492937,0.05260778873126037,0.056008755735303214
70,1456703940689638,0.019784389190491063,0.09186701974463309,0.29568550443600417,0.3298733595257347,0.250295717478083,0.19762146418264775,0.05268520621396861,0.05573900034237598
71,1456703940689638,0.019687520196776383,0.0903229179014333,0.2976764058042289,0.3244587921548674,0.24679445284396148,0.19208812161199537,0.052699625386788976,0.055576441197638354
72,1456703940693425,0.019871016351186942,0.089366135172271,0.29988200594336434,0.31853248437095033,0.24363938785615225,0.18856409139858998,0.052654045136300925,0.05552089397736335
73,1456703940693425,0.0203521092644591,0.08905334197225179,0.30230012718379534,0.31213979235044087,0.24090817347538485,0.1872950955117988,0.05255371125002753,0.05557020715212434
74,1456703940708427,0.02114242012706487,0.08943222478059343,0.30493271134651284,0.30533136750881495,0.23866846510607714,0.18850993180936337,0.05240617537774852,0.055720393809564304
75,1456703940708427,0.02224730492022433,0.09054057612188361,0.30778665772678243,0.29816368867493825,0.23697866128001294,0.19241688699629253,0.052221289455781465,0.055965813676384486
76,1456703940716428,0.023665326358387268,0.0924055361157288,0.31087455268955333,0.2906995498053202,0.23588902493824415,0.19919990427139989,0.05201112954522323,0.056299390870305985
77,1456703940716428,0.025387876711062605,0.09504298998978564,0.31421525731253924,0.2830084654048479,0.23544306834694664,0.20901451040607816,0.051789843731304394,0.056712847547096455
78,1456703940725936,0.02739897307002395,0.09845711746691324,0.31783431913651655,0.2751669398290728,0.23567904235752107,0.22198354876269855,0.05157341999142362,0.057196932113449846
79,1456703940725936,0.02967524310988503,0.10264008832774976,0.3217641612510665,0.2672585215026544,0.2366313531577429,0.23819280652126387,0.05137937173710997,0.057741625010176025
80,1456703940738958,0.032186115227962296,0.1075719042996143,0.32604397479830316,0.2593735392201892,0.2383317375826679,0.2576866649633903,0.05122634138446114,0.05833631302696778
81,1456703940738958,0.03489422243780604,0.11322039486557371,0.33071921337724774,0.25160841646990734,0.2408100542357791,0.2804639324508297,0.05113362704751551,0.0589699302448421
82,1456703940747959,0.03775602440087633,0.11954137792721801,0.33584058159688934,0.2440644905460635,0.24409458240584114,0.30647402836243764,0.05112064433298789,0.05963106858023742
83,1456703940747959,0.040722645809616806,0.12647899436111493,0.3414624395254109,0.23684631091239458,0.24821176075963491,0.3356136688863087,0.05120634232286882,0.06030806518115384
84,1456703940754157,0.04374092139933013,0.1339662208895767,0.34764060230031174,0.23005943726693187,0.2531853480584681,0.36772417943325747,0.051408598084717726,0.06098907805293501
85,1456703940754157,0.04675462837311174,0.1419255609893101,0.3544295799877243,0.2238078043767922,0.25903504901538754,0.40258955438584254,0.05174361602248738,0.061662163544750584
86,1456703940769126,0.049705876794812864,0.1502699098437821,0.3618793665515366,0.2181907756698876,0.2657747044455853,0.43993541808277997,0.05222535630012581,0.062315368809883365
87,1456703940769126,0.05253661867444253,0.1589035874253951,0.3700319438894573,0.21330005526488008,0.27341017844662113,0.4794290941272867,0.0528650116873497,0.0629368498525518
88,1456703940777162,0.055190228299842235,0.16772353493125522,0.3789177039323369,0.20921664387062186,0.2819370875573217,0.5206810312686132,0.053670548012147976,0.06351502146547201
89,1456703940777162,0.05761310060190261,0.17662067411399682,0.388551995329516,0.2060080079783886,0.29133852270145444,0.5632478434883859,0.054646322379738446,0.06403873872140567
90,1456703940792157,0.05975621076455766,0.18548143491065877,0.3989319749700774,0.20372560470748774,0.3015829216019435,0.6066371978434258,0.055792793835986385,0.06449750236119985
91,1456703940792157,0.06157657583513031,0.19418946127277226,0.4100339058512407,0.20240287811098673,0.31262225139069777,0.650314729126027,0.05710633981985432,0.0648816760606409
92,1456703940799155,0.0630385562846577,0.2026275035965021,0.4218110099868199,0.20205381442853823,0.32439065290472335,0.6937130739042118,0.058579187452608976,0.06518270343439006
93,1456703940799155,0.06411493279271595,0.210679492998746,0.4341919744096261,0.2026721142456327,0.3368036831050156,0.7362429983752184,0.060199463026988295,0.06539331429147907
94,1456703940808124,0.06478769596590846,0.21823276551115342,0.44708022439016204,0.20423101489834267,0.3497582745271724,0.777306455040248,0.061951358348203915,0.06550771102199293
95,1456703940808124,0.06504850055226456,0.22518036813128928,0.46035409685717055,0.20668377761848378,0.3631335071860801,0.8163112555264537,0.06381541068867716,0.06552172793178317
96,1456703940814106,0.06489876123786005,0.2314233455143551,0.47386803074642425,0.2099648351607852,0.3767922522190128,0.8526868997300645,0.06576889402378569,0.06543295975250014
97,1456703940814106,0.06434939643983222,0.23687288951359345,0.48745482842115295,0.2139915722693879,0.39058369615370037,0.8859009705158682,0.0677863205804087,0.06524085854925898
98,1456703940828909,0.0634202503249521,0.24145223997742224,0.5009289567570998,0.21866668263927444,0.404346692516368,0.9154754105921536,0.06984005077997302,0.06494679845036214
99,1456703940828909,0.062139238399115775,0.24509824680070671,0.5140907764789281,0.2238810141823075,0.41791381676383893,0.9410019401498085,0.07190100482815455,0.06455410611428734
100,1456703940837189,0.06054127067707412,0.2477625284826065,0.5267315326204061,0.2295167827165543,0.4311159275406079,0.962155813280098,0.07393946017082034,0.06406805491024688
101,1456703940837189,0.058667009922139815,0.24941218860966477,0.5386389167001316,0.23545100601399094,0.443786971545196,0.9787070352875228,0.07592590680658258,0.0634958227344008
102,1456703940851189,0.05656152005911854,0.2500300794448744,0.549603010071881,0.24155899127537256,0.4557687212256007,0.9905281439428939,0.07783191973143122,0.06284641423959413
103,1456703940851189,0.05427285369354291,0.24961462585406266,0.5594224073023573,0.24771770772324064,0.46691511881401015,0.9975978219212221,0.07963099874006796,0.06213054727329175
104,1456703940859190,0.05185062237940851,0.24817923969116853,0.5679102820963049,0.2538088926268944,0.4770959283747822,1.0,0.08129932436882133,0.06136050392639697
105,1456703940859190,0.04934459086008188,0.2457513688685964,0.5749001124953149,0.2597217618102087,0.48619945503762074,0.997918595731245,0.08281638579673414,0.06054995118610436
106,1456703940867190,0.04680333547699541,0.24237124014714181,0.5802507648967995,0.26535521728463085,0.4941341488379807,0.9916284041539548,0.08416544903091408,0.05971374172548663
107,1456703940867190,0.04427300585157821,0.2380903687060249,0.5838506844477703,0.27061947630109856,0.5008289781800156,0.9814828440807128,0.08533384790681842,0.0588677065036586
108,1456703940874191,0.041796227137476806,0.2329699189571718,0.5856210476612208,0.2754370964686975,0.5062325781805891,0.9678993444170492,0.08631309398618149,0.05802844614470763
109,1456703940874191,0.03941117638506531,0.22707900673042988,0.5855178375186583,0.27974342228357185,0.5103113524192016,0.9513432017791126,0.08709881259286592,0.05721312087343087
110,1456703940888192,0.037150859844143146,0.22049302679682303,0.583532839133568,0.28348650589707314,0.5130468602619865,0.9323107472809402,0.08769051994407841,0.05643923297958174
111,1456703940888192,0.03504260882433607,0.2132920707135527,0.5796935422760418,0.2866265673870587,0.5144328883735901,0.9113126062457573,0.08809126159431878,0.05572439312734223
112,1456703940896193,0.03310780126161941,0.20555947726029064,0.5740619526968638,0.28913508417589934,0.5144725924828697,0.8888577312338967,0.08830713764567974,0.05508606292487584
113,1456703940896193,0.03136180542311143,0.19738054006037614,0.5667323921360181,0.2909936375749239,0.5131760527694532,0.8654387637346134,0.08834674745376278,0.05454127094516434
114,1456703940911194,0.029814132273757836,0.18884138257423927,0.5578284547539116,0.29219266808778155,0.5105585326460635,0.841519159311242,0.08822059590181468,0.05410630611404791
115,1456703940911194,0.028468774980487884,0.18002799440524095,0.5474993203301626,0.2927302780107048,0.5066396521841899,0.8175224144811389,0.08794051160521357,0.05379639800283375
116,1456703940918194,0.02732470799541625,0.17102540855062387,0.5359156045812691,0.29261117863548763,0.5014435778717913,0.7938236634747281,0.0875191298793524,0.053625395985509486
117,1456703940918194,0.026376513490122582,0.16191699687216793,0.5232648995059084,0.2918458342014856,0.4950002066615581,0.7707438481620132,0.08696948715312418,0.053605458895516704
118,1456703940927699,0.02561509971794247,0.15278387429742835,0.5097471410826953,0.29044982041782635,0.48734720637169426,0.748546572199343,0.08630475958431578,0.05374676569219691
119,1456703940927699,0.025028475292578227,0.143704422737536,0.49556992409092837,0.28844339095801064,0.4785326772836883,0.727437612275636,0.08553816010389534,0.05405725674093078
120,1456703940933706,0.024602545577761946,0.13475395882108004,0.48094385499641923,0.2858512234352441,0.4686181219835773,0.7075668894975178,0.08468298848199807,0.05454241399089934
121,1456703940933706,0.024321900950760526,0.1260045655473834,0.4660780075906468,0.28270229453309315,0.45768135304728463,0.6890325358359842,0.08375281129622454,0.05520508617301866
122,1456703940948206,0.02417057039885606,0.11752508873829694,0.45117554257414344,0.2790298192688632,0.445818941017256,0.6718865490373274,0.08276173545257584,0.05604536335864795
123,1456703940948206,0.024132717488590968,0.10938127451226881,0.43642957032340884,0.2748711908125604,0.4331478294499754,0.6561414370162957,0.08172473160130027,0.057060505456559336
124,1456703940956205,0.02419325897476538,0.10163600319588394,0.4220193534620443,0.27026787324924473,0.4198058327689116,0.6417772448696398,0.08065796220950178,0.05824493141189119
125,1456703940956205,0.024338389059876904,0.09434956227150586,0.40810695135473707,0.26526521788695023,0.4059508579732088,0.6287484471631043,0.0795790721600502,0.05959027761309304
126,1456703940971207,0.024555995447156795,0.08757989566556171,0.3948344126456746,0.25991218534639593,0.39175879939085384,0.616990332233277,0.07850740609597563,0.06108553211044725
127,1456703940971207,0.02483595795376369,0.08138276789396401,0.3823216259175255,0.254260963772218,0.3774201361835272,0.6064246521816168,0.0774641244559905,0.06271724433225552
128,1456703940978207,0.025170326214588118,0.07581179122289791,0.3706649209979005,0.24836648558907307,0.36313535578472916,0.5969644514572495,0.07647219800837052,0.06446979982486448
129,1456703940978207,0.02555337833455197,0.07091828396904148,0.3599364609767151,0.2422858620640521,0.3491094465363729,0.588518113022942,0.07555626816594788,0.06632574014878166
130,1456703940987208,0.025981566334228764,0.06675095360001534,0.35018439753217745,0.2360777681822691,0.3355458029366186,0.5809927356734594,0.07474236621502517,0.0682661037484692
131,1456703940987208,0.026453357156451206,0.06335541891049114,0.3414337150497924,0.22980180960518898,0.32263992178660916,0.574296949159326,0.07405748753059695,0.07027076612191857
132,1456703941001209,0.02696898031329054,0.06077359475769822,0.3336876767781544,0.22351788607267245,0.3105732425649424,0.5683432074497844,0.0735290180054741,0.07231876425274046
133,1456703941001209,0.0275300954579323,0.059042963423650764,0.32692979178084597,0.2172855414025563,0.2995074332188739,0.5630495258149266,0.07318401304835825,0.07438859680018822
134,1456703941008208,0.028139395906475097,0.058195754965329714,0.3211262222660871,0.2111632778178716,0.28957936442729076,0.5583405859642023,0.07304833834756845,0.07645849598830651
135,1456703941008208,0.028800167205641398,0.05825805757118052,0.31622854449874854,0.20520782536469878,0.28089695758461375,0.5541481481856996,0.07314569630263085,0.07850666850642918
136,1456703941016208,0.029515821995371797,0.0592488768509903,0.3121767689928712,0.19947338891530808,0.2735360403289246,0.5504107808977566,0.07349657785840359,0.08051150013068205
137,1456703941016208,0.030289432605647697,0.0611791605811813,0.3089025103116922,0.19401092037527665,0.2675383054053013,0.5470730195794128,0.07411719080743835,0.08245171514652612
138,1456703941031720,0.031123281022955245,0.06405080750480246,0.3063321649104723,0.18886746230173684,0.2629104402084498,0.5440841595095436,0.07501842140703802,0.08430648360940195
139,1456703941031720,0.03201844300830271,0.06785568915660463,0.3043899209359969,0.18408558588939128,0.2596244611337291,0.5413969378890158,0.07620488923306705,0.08605547974342556
140,1456703941038219,0.032974420601256264,0.07257472828185325,0.303000415143062,0.17970292121099418,0.2576192421862269,0.5389663518749571,0.07767415659566285,0.08767890801838611
141,1456703941038219,0.03398883546509573,0.07817708738766106,0.3020908815542045,0.1757517634092875,0.25680318036723243,0.5367487925735814,0.07941615089818897,0.089157521939102
142,1456703941047219,0.03505719368650083,0.08461952182066164,0.3015926950363431,0.17225873493057803,0.25705790148485363,0.5347015812040622,0.0814128487761001,0.09047266190735449
143,1456703941047219,0.03617273030655179,0.09184594568444514,0.3014422862933809,0.16924448845656143,0.25824287802061435,0.532782912751477,0.0836382561357882,0.0916063356997605
144,1456703941054220,0.03732634005670912,0.0997872501853009,0.30158147711142264,0.16672344818795143,0.26020079977386573,0.5309521673376555,0.08605870169776388,0.092541360778537
145,1456703941054220,0.038506600403903773,0.10836140577265926,0.3019573381840214,0.16470360497374076,0.26276350700973256,0.5291705340337853,0.08863344538985718,0.09326158166080849
146,1456703941068221,0.03969989311097256,0.11747387313537182,0.3025216980783808,0.16318639277838617,0.26575826411795583,0.5274018817321537,0.09131558705908145,0.09375216785042771
147,1456703941068221,0.04089062895535076,0.12701834325815078,0.3032304360862669,0.16216667097690265,0.26901411475916104,0.5256137869047753,0.09405324508029615,0.09399998937831192
148,1456703941076221,0.042061575793581864,0.13687782171202617,0.30404268188127975,0.16163282187685338,0.27236801612860534,0.5237785885216157,0.09679095866873165,0.09399405797352349
149,1456703941076221,0.04319428366311235,0.14692606623371185,0.3049200241241566,0.1615669578823072,0.2756704121224672,0.5218743069010638,0.09947125366795652,0.0937260122783027
150,1456703941091222,0.044269594118855504,0.15702937993099825,0.30582579913008534,0.1619452266898372,0.27878989619037575,0.5198852649292179,0.1020363029050026,0.09319061725265308
151,1456703941091222,0.04526821571360612,0.16704875520902995,0.3067244955382702,0.16273820515453952,0.28161665973985484,0.5178023040642795,0.10442961196812063,0.09238624403077239
152,1456703941098222,0.04617134329655427,0.17684235370444226,0.3075812859869489,0.16391137640552436,0.2840645327973488,0.5156225848064723,0.10659766848368478,0.09131529833473817
153,1456703941098222,0.04696129569004751,0.18626829214303106,0.30836169517218637,0.16542568426042945,0.28607158123366666,0.5133490704352586,0.10849150315846838,0.08998457149083107
154,1456703941107223,0.04762214521215605,0.19518768156509805,0.30903143266407107,0.16723815306259693,0.28759938185268213,0.5109898729456778,0.11006811972119618,0.08840549472034541
155,1456703941107223,0.04814031380385795,0.20346783834920118,0.3095564377973987,0.16930255449507126,0.28863120811716464,0.5085576555679454,0.11129175673017425,0.08659428181458824
156,1456703941121944,0.048505113294554314,0.21098555138770608,0.30990318052660343,0.17157010094928937,0.2891694101781737,0.5060692270538968,0.11213494727192283,0.08457194697328349
157,1456703941121944,0.048709210205548394,0.2176302529859538,0.31003923322236293,0.17399014840482607,0.2892322743326337,0.5035453532652996,0.11257934294947802,0.08236418522194006
158,1456703941128974,0.04874899749567079,0.22330690768103112,0.3099340919274946,0.17651089812581175,0.288850618827678,0.5010106926487073,0.11261626656771803,0.08000110486876288
159,1456703941128974,0.048624857072172394,0.22793841593028152,0.30956019880238983,0.179080093848173,0.2880643444460265,0.4984936754236558,0.11224695714420721,0.07751680653877926
160,1456703941136235,0.04834129960668013,0.23146734630035917,0.3088940997645239,0.18164571842263538,0.28691912470961206,0.49602612818947484,0.11148247723901122,0.07494881175306504
161,1456703941136235,0.047906974338504854,0.233856873533819,0.30791765501971746,0.18415670053622882,0.28546339653333963,0.4936425134306923,0.1103432688200877,0.07233735453993428
162,1456703941151235,0.047334550498107836,0.23509090151075196,0.3066192064500936,0.18656364717681492,0.2837457896449454,0.49137878469451257,0.10885836652107578,0.06972455921911795
163,1456703941151235,0.04664047962029576,0.23517345159538028,0.30499459652341576,0.18881961639742453,0.2818130996605175,0.4892709897571517,0.10706429969023902,0.06715353307483052
164,1456703941158236,0.04584465090194759,0.2341274580423343,0.30304792015617554,0.19088093155847993,0.2797088604490478,0.487353818502392,0.10500373316295139,0.06466740363062823
165,1456703941158236,0.04496995105416486,0.2319931274555897,0.3007918716544953,0.1927080147393863,0.2774725124870276,0.48565927184074137,0.10272391147733617,0.0623083300315812
166,1456703941167237,0.0440417393706728,0.22882601414264814,0.29824754955959004,0.19426619851523189,0.27513910797353075,0.48421556472681376,0.1002749825802758,0.060116520111775935
167,1456703941167237,0.0430872497806289,0.22469495683350685,0.2954436405946556,0.1955264777075184,0.272739452915381,0.48304632170894507,0.09770828334807143,0.05812928814139188
168,1456703941181237,0.042134934207288526,0.21968001100429507,0.2924150195079944,0.19646618425643972,0.270300567748949,0.48217009111137765,0.09507466964220088,0.05638018895935298
169,1456703941181237,0.04121376462835336,0.21387048461163158,0.2892009196005068,0.19706958898568705,0.26784635106714505,0.4816001750939464,0.09242296848945347,0.054898260031200255
170,1456703941188238,0.04035251343503275,0.2073631425066092,0.28584289133408003,0.19732843623489962,0.26539835054937316,0.48134473401693406,0.08979861938969141,0.053707395459147794
171,1456703941188238,0.03957903208397112,0.2002605950503648,0.28238276589087896,0.1972424007113885,0.26297656966756083,0.4814070855042716,0.08724255617081338,0.052825867854227736
172,1456703941196238,0.03891954708059868,0.19266984086730396,0.27886080636243826,0.196819431967913,0.26060025138826864,0.48178609968321,0.0847903617705942,0.052266006234444266
173,1456703941196238,0.03839799109786102,0.18470090041461196,0.2753141853738101,0.19607593684080699,0.2582885750930006,0.48247659719546004,0.08247170782523765,0.05203403003654635
174,1456703941211239,0.03803538609738928,0.1764654622499703,0.27177588242145007,0.1950367590529873,0.2560611979306937,0.48346967784454437,0.0803100712131377,0.05213003105373557
175,1456703941211239,0.037849294569374636,0.16807547282105204,0.26827405250844566,0.193734947782846,0.25393858891848414,0.48475293637508915,0.07832270335590454,0.05254808848192943
176,1456703941218239,0.037853354021046226,0.1596416309949834,0.2648318850761858,0.19221134337640236,0.2519421411088947,0.48631055366329895,0.07652081766808133,0.05327649903677346
177,1456703941218239,0.03805690827936484,0.15127178777359368,0.26146794784599164,0.19051402754681857,0.25009408209857464,0.48812328676126254,0.0749099569755899,0.05429810429966726
178,1456703941227745,0.038464746739093135,0.14306928594013038,0.25819698797814594,0.18869768117257105,0.24841722204895336,0.4901684208535882,0.0734905037240594,0.055590699548403344
179,1456703941227745,0.039076959386216366,0.13513129656603667,0.2550311370556991,0.18682287046176438,0.24693458352061864,0.49241978165704425,0.07225829787537091,0.057127511111874925
180,1456703941241251,0.03988891227440244,0.12754721870142938,0.2519814363876573,0.18495525181357508,0.2456689535634689,0.4948479190760109,0.07120532976118277,0.05887773289241052
181,1456703941241251,0.04089134636278138,0.12039720889537965,0.24905957303824827,0.1831646593905175,0.24464238490740675,0.49742055342398744,0.07032047911241651,0.06080711709030644
182,1456703941248251,0.042070601808086514,0.11375090242939091,0.24627970429293541,0.18152402815970403,0.24387565177376053,0.5001033348491359,0.06959027639063577,0.06287861810948363
183,1456703941248251,0.043408968272876894,0.1076663793461763,0.24366024813845805,0.18010811606796578,0.24338764989238565,0.5028609147167153,0.06899966580420082,0.06505309109788372
184,1456703941256292,0.04488515870154586,0.10218941589818768,0.24122551894880526,0.1789920222693645,0.24319473491256785,0.5056582666773811,0.06853274935026551,0.06729004714381129
185,1456703941256292,0.046474899517557205,0.09735304725168092,0.23900708251431368,0.17824954091901707,0.2433100181367149,0.5084621371979491,0.06817348854222015,0.06954846498999036
186,1456703941271253,0.04815162473122038,0.0931774505216304,0.23704469678336715,0.17795141993846425,0.24374266542836104,0.511242472922702,0.06790633834895433,0.07178765360429933
187,1456703941271253,0.04988725568111543,0.08967013927316604,0.23538671046107276,0.17816359911764204,0.24449725462431735,0.5139736700253773,0.067716790505548,0.07396815114045531
188,1456703941278253,0.05165304272252515,0.08682644576938078,0.23408982676053341,0.1789454883812036,0.24557323331225636,0.5166354985689556,0.06759181161907768,0.07605263417772248
189,1456703941278253,0.053420440028304074,0.0846302601922327,0.23321819982942493,0.18034832856647715,0.24696449391456513,0.519213561963743,0.06752017092141412,0.07800679898077267
190,1456703941287253,0.055161979394749684,0.0830549964311167,0.23284189055778312,0.18241366276055418,0.2486590629707248,0.5216991732668959,0.06749265777209752,0.07980016951995846
191,1456703941287253,0.05685210423882008,0.08206475670514796,0.23303474489330864,0.185171938896823,0.2506388916837036,0.5240885765959994,0.0675021898564765,0.08140679030439997
192,1456703941301255,0.05846792237619576,0.08161566816537212,0.23387177512896404,0.18864126112278917,0.2528797304425968,0.5263815040643233,0.06754381451199226,0.08280577385756867
193,1456703941301255,0.05998983632378412,0.08165736446868269,0.2354261408550575,0.19282630517707963,0.25535107168528903,0.5285791380243247,0.06761461137279423,0.08398168413962963
194,1456703941308255,0.06140201282971583,0.08213458684671415,0.23776585005181994,0.1977174160104613,0.25801616123076737,0.530681660433938,0.06771351147532843,0.08492474185924077
195,1456703941308255,0.06269266098180334,0.08298888154725535,0.24095032504946093,0.2032899210921515,0.26083210870990825,0.5326857000033689,0.06784105067531701,0.08563083832124532
196,1456703941316256,0.06385410323274128,0.08416036936948679,0.24502699128607391,0.20950371433790133,0.26375016061356543,0.5345820742348923,0.06799907371240972,0.08610134910952597
197,1456703941316256,0.0648826440466684,0.08558955608319074,0.2500280453508201,0.2163031765506658,0.2667162201453878,0.5363542158680892,0.06819040413164078,0.08634275071153129
198,1456703941331798,0.06577825889767218,0.08721914232863916,0.25596754922609716,0.22361749044048307,0.26967169819123366,0.5379775722720589,0.0684184960478681,0.08636605824552869
199,1456703941331798,0.06654413595018761,0.08899578237581716,0.262838988158528,0.2313613876158862,0.2725547586739031,0.5394201150241361,0.06868708308171786,0.08618611565935443
200,1456703941338268,0.0671861055377888,0.0908717352521706,0.27061342004348093,0.23943633911423035,0.2753019851038098,0.540643943742615,0.0689998357764916,0.08582077983981178
201,1456703941338268,0.06771199355047774,0.09280634963506154,0.27923832530550075,0.24773217353669535,0.27785045055440405,0.5416078427903999,0.06936003443600552,0.08529004758013728
202,1456703941347267,0.06813093513675807,0.09476732574480559,0.2886372300282739,0.2561290818529109,0.28014012433833857,0.5422705579163358,0.06977026340761397,0.08461517782420411
203,1456703941347267,0.06845268243761543,0.09673170412789821,0.2987101289187232,0.26449995164121337,0.28211649630305585,0.5425944931849317,0.07023213510017627,0.08381785845273962
204,1456703941361269,0.06868693411240444,0.09868654336785626,0.3093347026447398,0.27271296870139417,0.2837332481058373,0.5425494793975637,0.07074605389744093,0.08291945701165315
205,1456703941361269,0.06884270834440857,0.10062926511668205,0.3203683231951866,0.2806344266231884,0.2849547626804686,0.5421162454179587,0.07131102926476475,0.08194038155000467
206,1456703941368269,0.0689277785523,0.10256766192322951,0.3316508558379424,0.28813168788459675,0.2857582564282102,0.5412892587864684,0.07192454514883277,0.08089956590556928
207,1456703941368269,0.06894819355547634,0.1045195773468686,0.34300826164727505,0.29507623889028856,0.2861353546900857,0.5400786947230259,0.0725824920249295,0.07981408647591516
208,1456703941376269,0.06890790911803805,0.10651227602643759,0.3542569619658283,0.30134677515836183,0.28609300439278573,0.5385114041635788,0.07327916864056287,0.07869891422495785
209,1456703941376269,0.06880856058170928,0.10858152247146748,0.3652088565471054,0.30683224157960154,0.28565370808032076,0.5366308398791136,0.07400735916203992,0.0775668035070153
210,1456703941391275,0.06864940226469923,0.11077038270436844,0.3756768135901758,0.31143473707194796,0.28485514167526915,0.5344959619708619,0.07475848494454225,0.07642831538151142
211,1456703941391275,0.06842742762567366,0.113127757077618,0.38548038978618143,0.31507217908473484,0.2837492574202414,0.5321791972740672,0.07552281949773539,0.07529196534260216
212,1456703941398270,0.06813766751100461,0.11570665141652446,0.39445149754565967,0.3176806235362647,0.2824009696736991,0.5297635756783226,0.07628974531430331,0.07416447390271454
213,1456703941398270,0.06777364579172612,0.11856220012591243,0.40243971583500854,0.3192161559399622,0.2808864980929104,0.527339207992165,0.07704802728184036,0.07305108748057401
214,1456703941407271,0.06732795533859977,0.12174946746270689,0.4093169501149058,0.3196562947949372,0.2792914244553989,0.5249993075765642,0.07778608083297242,0.0719559320482821
215,1456703941407271,0.06679290493234753,0.1253210695663998,0.4149811967509833,0.3190008527972341,0.27770850950391546,0.5228359891316691,0.07849222064130153,0.0708823638794212
216,1456703941422071,0.06616118156992654,0.1293246812650974,0.4193592443550406,0.31727218017588793,0.2762353059054681,0.5209360924133976,0.07915488317991412,0.06983328648994337
217,1456703941422071,0.06542647473014575,0.13380051737793286,0.4224082158228518,0.3145146986564142,0.2749715883967033,0.5193772707265739,0.0797628217429376,0.06881140730267002
218,1456703941428981,0.06458402027618662,0.13877889806234653,0.4241159106170809,0.3107936630072566,0.27401660993414617,0.5182245571390462,0.0803052760910165,0.06781941260270484
219,1456703941428981,0.06363103915868798,0.14427800959396764,0.4244999715041899,0.3061931619696626,0.2734661946720516,0.5175275771259563,0.08077212249289996,0.06686004740723252
220,1456703941436390,0.06256706369055816,0.15030195647206238,0.4236059880039643,0.30081345233396484,0.27340969233238677,0.5173185081994404,0.0811540150099191,0.06593609877923762
221,1456703941436390,0.06139415615037459,0.1568391809403515,0.42150473476053685,0.29476777056461373,0.27392682890515685,0.517610795994121,0.08144253408845134,0.06505029542988193
222,1456703941452180,0.06011702958265245,0.1638613134982955,0.4182887893658127,0.2881787814866911,0.2750844949217376,0.5183985529482362,0.08163035945809886,0.06420514983627097
223,1456703941452180,0.058743081383633995,0.17132251554028455,0.41406877341843895,0.2811748221090045,0.276933534806772,0.5196565348491038,0.08171147755763722,0.06340277753695363
224,1456703941459181,0.057282349566715234,0.17915937922257205,0.40896943662518737,0.2738860956050685,0.27950564964794394,0.521340622226718,0.08168142076795043,0.06264472908748524
225,1456703941459181,0.05574740093705691,0.18729145160152727,0.40312577788656795,0.2664409671199558,0.28281058264719994,0.52338878769567,0.08153752122280673,0.06193186333006361
226,1456703941474181,0.05415315959985087,0.19562243935080362,0.3966793663289693,0.25896250259325226,0.2868337919941718,0.5257225554092214,0.08127914959818025,0.06126427858939324
227,1456703941474181,0.05251668289930398,0.20404212201898259,0.3897749758752115,0.25156536835956717,0.2915348180739087,0.5282489344790935,0.08090790240345677,0.060641305011819586
228,1456703941481459,0.050856890994591196,0.21242896091530944,0.3825575830849343,0.24435317793946282,0.2968465319094688,0.5308627531804361,0.08042770397065853,0.060061550768076816
229,1456703941481459,0.049194257298820716,0.22065334655214247,0.3751697223004309,0.23741634819632315,0.3026754223790431,0.5334492760174736,0.07984480232646983,0.05952299057250947
230,1456703941496183,0.04755046908332201,0.22858138533440125,0.36774916232640315,0.23083051791775122,0.30890303758260335,0.5358869862579911,0.07916765597146887,0.05902308737224069
231,1456703941496183,0.04594806752682596,0.23607908494087373,0.3604268640965312,0.2246555786870972,0.3153886304183611,0.5380504596602994,0.07840672331569996,0.05855894408021238
232,1456703941497190,0.044410072922347055,0.2430167564365683,0.3533251861251574,0.21893535576518527,0.32197297145324827,0.5398133011002043,0.07757417319238157,0.05812748730063775
233,1456703941497190,0.04295959592572384,0.24927341618501364,0.3465563086849552,0.2136979487820187,0.32848319793312,0.5410511325353929,0.07668353369390377,0.05772568540054385
234,1456703941511397,0.04161943309625552,0.254740953797715,0.3402208429297327,0.20895670052119042,0.3347384833306662,0.5416446122202835,0.07574929157764354,0.05735079759013028
235,1456703941511397,0.040411646297706404,0.2593278358462422,0.3344065871841591,0.20471171441737368,0.340556249918693,0.5414824496108126,0.07478645097850983,0.05700064039023575
236,1456703941518383,0.039357129973181575,0.2629621287069297,0.32918739731043245,0.20095179821979256,0.3457586100445683,0.5404643637223074,0.0738100620953992,0.05667384670754275
237,1456703941518383,0.03847517491360138,0.2655936485180038,0.32462214983237847,0.19765668345552462,0.3501787008732579,0.538503909032868,0.0728347373853292,0.05637008531144283
238,1456703941533937,0.03778303911776273,0.267195104850887,0.32075380216993565,0.19479936372363993,0.3536665655690102,0.5355310604395548,0.07187417905418228,0.05609020881130433
239,1456703941533937,0.037295535814256806,0.2677622073277102,0.31760860432797894,0.19234840802604894,0.3560942463373274,0.5314944208750789,0.07094074196011221,0.05583630724251802
240,1456703941541595,0.03702464790449509,0.26731281661477346,0.3151955743595624,0.1902701342905078,0.3573598216638847,0.5263629168757678,0.07004505092662659,0.055611658626048256
241,1456703941541595,0.0369791780808845,0.2658852958514104,0.31350637988747276,0.18853056837013607,0.3573902447265931,0.520126893206575,0.06919568574471349,0.05542058175290027
242,1456703941556606,0.037164444144255536,0.2635362458979494,0.3125157545231721,0.18709715426057852,0.3561429735235852,0.5127985923472151,0.06839894386862153,0.05526820620831919
243,1456703941556606,0.037582029396447246,0.2603378107435361,0.3121825348173829,0.18594020865836222,0.35360647057993294,0.504412072817378,0.06765868829537615,0.05516018010506879
244,1456703941564401,0.03822959872968798,0.25637473404397443,0.31245134736840174,0.185034125453924,0.3497996906822675,0.4950226566545821,0.06697628393099589,0.05510233886954146
245,1456703941564401,0.03910079192226508,0.2517413315065968,0.31325491583196396,0.1843583419738701,0.34477070387780007,0.4847059967425833,0.06635062153037508,0.055100359791167196
246,1456703941571689,0.04018520619600829,0.24653851400213694,0.3145169037420991,0.18389808159285737,0.33859462705806215,0.47355682660882864,0.06577822769640466,0.05515942664613935
247,1456703941571689,0.04146848014671536,0.24087096076127706,0.31615517238149543,0.18364488025332004,0.331371042589225,0.4616874155102096,0.06525346212797352,0.05528392641772138
248,1456703941578686,0.04293249038535088,0.23484451262587977,0.31808531443626437,0.18359688485926132,0.323221060106488,0.4492257238503664,0.06476880417268986,0.05547719695185365
249,1456703941578686,0.04455566970827737,0.22856383787518939,0.32022431316296307,0.18375888963026107,0.3142841393670543,0.4363132512167855,0.0643152254075897,0.05574134091432188
250,1456703941593688,0.046313450418050746,0.22213041247605375,0.3224941641948003,0.18414207071563557,0.30471475259689484,0.4231025822134604,0.06388263463294064,0.056077116555553225
251,1456703941593688,0.04817882848300751,0.2156408415035373,0.3248252872924236,0.1847634015833955,0.29467893767563325,0.4097546497716623,0.06346037114202521,0.056483908784315834
252,1456703941601693,0.050123034546054684,0.20918552510543165,0.3271595632358527,0.18564477280459138,0.28435078700044264,0.39643575581456897,0.06303771524271433,0.05695977639104714
253,1456703941601693,0.05211628769870282,0.20284765007698247,0.3294528661766094,0.18681187495739957,0.27390892606025236,0.38331442469072713,0.06260438374060964,0.057501564565514834
254,1456703941616404,0.054128598747595624,0.19670247834050653,0.33167701313667103,0.18829291573772158,0.26353304453142556,0.3705582022637924,0.06215098311800863,0.05810506594176785
255,1456703941616404,0.05613058328974089,0.19081690724226286,0.33382109180210545,0.19011723501790137,0.253400534398168,0.35833052420108974,0.06166940202113993,0.05876520822012841
256,1456703941617404,0.058094243509138555,0.1852492850087169,0.3358921316523525,0.19231386549187118,0.2436832610018958,0.3467877517228002,0.06115313239393982,0.059476243661217676
257,1456703941617404,0.05999368230321894,0.18004946783383818,0.3379150495466238,0.19491006848595374,0.2345444616069168,0.3360764298682418,0.06059751228182397,0.06023191729464318
258,1456703941631701,0.061805723079500996,0.1752590946546221,0.33993175151246785,0.1979298578389267,0.22613575673687097,0.3263307821923206,0.059999884385183,0.061025596756317114
259,1456703941631701,0.06351042019225027,0.17091203010817718,0.34199925323548735,0.2013925127198638,0.2185942791675109,0.3176704253016171,0.05935966596214106,0.061850355794409353
260,1456703941639023,0.06509145407228957,0.16703489835987423,0.3441867392069458,0.20531107576794969,0.21203995721253485,0.310198274135854,0.05867832960240949,0.06269901324900291
261,1456703941639023,0.06653640786797668,0.16364762196469992,0.34657161396432346,0.20969083841002745,0.20657301208660656,0.30399862234286873,0.05795930054540199,0.06356413718305644
262,1456703941654215,0.06783691815941961,0.16076389954962067,0.34923474927693915,0.21452783368421482,0.20227173858941896,0.29913541719423736,0.05720778273107857,0.0644380282637944
263,1456703941654215,0.06898868421996422,0.15839159178134474,0.352255238437451,0.21980738964154262,0.19919064280042303,0.29565078832470437,0.05643053061556936,0.065312697720496
264,1456703941661311,0.06999131407222071,0.15653301961591742,0.3557050192234768,0.22550283522512526,0.19735901673956435,0.29356391770177265,0.05563558574687298,0.06617985459969913
265,1456703941661311,0.07084798678006113,0.1551852043329158,0.3596437351544236,0.23157447677139623,0.1967800324952552,0.2928703450271032,0.054831995711142,0.06703091507796159
266,1456703941677188,0.07156492233262432,0.1543400944701355,0.3641141818101821,0.23796896375228785,0.1974304260319694,0.2935417862832468,0.0540295290735534,0.06785704230852983
267,1456703941677188,0.07215067240516426,0.15398483104916433,0.36913863668253527,0.24461914382675007,0.1992608143618984,0.2955265105163665,0.05323839551696273,0.06864921833879409
268,1456703941677188,0.07261527077268765,0.15410210043889364,0.3747163020276095,0.2514444852716588,0.20219666412584045,0.29875028255357405,0.05246897715406972,0.06939834204576682
269,1456703941677188,0.07296930189696321,0.15467061485657338,0.38082200377252,0.25835212256294166,0.20613991507558962,0.30311784416276444,0.05173157435437838,0.07009534180614815
270,1456703941692026,0.07322295577117031,0.15566574426082616,0.3874061896726251,0.2652385488779742,0.2109712489900388,0.3085148749326342,0.051036166262187245,0.07073129045002292
271,1456703941692026,0.07338513888745245,0.15706030073903388,0.39439616573796404,0.2719919315241058,0.21655296627865822,0.3148103490850246,0.050392183504472166,0.07129751283133667
272,1456703941699134,0.07346270811757916,0.1588254496134726,0.4016984165804424,0.2784949663534603,0.22273238722680672,0.3218591895432727,0.0498082908319022,0.07178568170315854
273,1456703941699134,0.07345988645103964,0.16093169525773646,0.4092017897323032,0.28462812410156346,0.22934564947702926,0.32950511698573104,0.04929218117941381,0.07218790360870553
274,1456703941713028,0.07337790707954579,0.16334987123272013,0.41678129652230406,0.2902730886925504,0.23622174705701135,0.3375835970785091,0.048850387473613935,0.07249680191595709
275,1456703941713028,0.0732149170351117,0.16605206164900982,0.4243022896045816,0.2953161626798271,0.24318665707225415,0.34592480490261845,0.04848812157978586,0.07270560830282655
276,1456703941721554,0.0729661548713873,0.1690123970103693,0.4316248039795602,0.2996514314165332,0.2500674253728836,0.35435655586513476,0.048209150297573895,0.07280827583980033
277,1456703941721554,0.07262439881165422,0.1722076959889744,0.4386078738284605,0.303183531017998,0.2566961208507444,0.3627071894476053,0.04801571723101817,0.07279962535387355
278,1456703941736053,0.0721806626590324,0.17561794883256218,0.4451136498850395,0.3058299332567071,0.26291360063000335,0.3708084130996226,0.04790851738226877,0.07267553278144685
279,1456703941736053,0.07162509782079288,0.17922664565999155,0.45101115402766134,0.30752272013800463,0.2685730401179512,0.3784981037445906,0.04788672803479265,0.07243316053141963
280,1456703941737062,0.07094804233460693,0.1830209432899923,0.4561795508010283,0.30820986454025356,0.273543173705263,0.38562303474979437,0.047948094167993144,0.07207123114906142
281,1456703941737062,0.07014114279547536,0.18699164570582835,0.46051090039879844,0.3078560642994392,0.27771117521829325,0.39204146767756876,0.04808905960156215,0.07159033601150278
282,1456703941751065,0.06919846399165322,0.1911329547258637,0.46391244748196453,0.3064431972934905,0.28098509195312366,0.3976255304601617,0.04830492826401915,0.07099326449631345
283,1456703941751065,0.0681174963285082,0.1954419406870025,0.4663085445904042,0.3039704751496771,0.28329574079878134,0.40226329717622533,0.04859003621307726,0.07028533003659085
284,1456703941758063,0.06689997609521217,0.1999177045164783,0.4676422972649365,0.30045437654746243,0.28459798836760536,0.4058604903968831,0.04893791622615911,0.06947466016953006
285,1456703941758063,0.06555245076643922,0.20456025741110384,0.4678769793866011,0.29592843782753,0.28487137012990627,0.40834174955169583,0.049341442572020444,0.06857241154416409
286,1456703941773068,0.06408654914999622,0.20936921023135996,0.4669972257880938,0.2904429616579472,0.28412004365489846,0.40965145189205027,0.04979295152242254,0.06759287227863953
287,1456703941773068,0.0625189474104891,0.21434240780612018,0.4650099670772994,0.28406466932604485,0.28237210396633167,0.40975413324379956,0.05028434043556807,0.06655342471990632
288,1456703941781063,0.060871048906045125,0.21947464804098285,0.4619450308717458,0.276876276202273,0.2796783136318039,0.40863461723968175,0.05080715310135222,0.06547435745022294
289,1456703941781063,0.05916841435707768,0.2247566008511378,0.45785530287629334,0.2689759248850856,0.27611031993283197,0.4062979949764109,0.05135266098177323,0.06437852929641723
290,1456703941797064,0.05743998905150495,0.23017400392223475,0.4528163201207504,0.2604763724587783,0.27175843986750853,0.4027695784777848,0.0519119494608244,0.06329089696538935
291,1456703941797064,0.055717177494822155,0.23570717242184963,0.44692515263158084,0.25150380549601997,0.2667290849280828,0.39809488490072586,0.052476016168997566,0.06223792396448138
292,1456703941797064,0.05403281619568618,0.24133082472343706,0.4402984335963209,0.24219616904873192,0.2611418815445793,0.392339621674985,0.05303588523414235,0.061246894222015444
293,1456703941797064,0.05242009427045535,0.2470142030236284,0.43306945603138086,0.2327009558212051,0.255126536508162,0.3855895648156322,0.05358273697675569,0.060345159229455825
294,1456703941811064,0.0509114688634488,0.2527214627388365,0.42538438235092196,0.22317248627103223,0.24881950514742718,0.37795017423914934,0.05410804867969521,0.05955935161177878
295,1456703941811064,0.04953761741617714,0.258412313503975,0.4173977743671184,0.21376877912903347,0.24236053785780412,0.36954578460085913,0.054603741268915866,0.058914600109749735
296,1456703941819090,0.04832646314881448,0.2640429008994506,0.4092677735531881,0.20464814821684602,0.23588920240112538,0.3605182486446551,0.05506232966975872,0.058433780422960484
297,1456703941819090,0.04730230581929212,0.26956691086751516,0.40115130056354265,0.19596567602800755,0.22954150123904493,0.3510249721862406,0.05547707893618253,0.05813683317304784
298,1456703941841667,0.04648508687052054,0.2749368658226279,0.39319960864394116,0.18786971496333763,0.22344671582544376,0.34123633558467253,0.05584217091894478,0.058040174995535335
299,1456703941841667,0.04588981472717984,0.2801055747818287,0.38555445258704263,0.18049854996625925,0.2177246024491299,0.3313325341316433,0.05615288518026294,0.05815622218916513
300,1456703941842694,0.04552617115778539,0.28502769807152717,0.37834504998032054,0.17397732494581628,0.21248303503784713,0.3214999038067864,0.056405792651180425,0.05849303941575276
301,1456703941842694,0.045398313593556575,0.2896613797420203,0.37168592614866064,0.16841530513131797,0.2078161484662549,0.3119268412423243,0.05659895290900555,0.059054119836713395
302,1456703941858720,0.045504881395378546,0.29396988398403656,0.3656756533195794,0.16390353032182106,0.2038029935095491,0.3027994627602239,0.056732099129096825,0.059838298679438844
303,1456703941858720,0.045839205859633185,0.29792315509715667,0.36039642430735097,0.16051290705331525,0.2005066783861123,0.2942971546536711,0.05680679120409813,0.060839799598841136
304,1456703941859720,0.04638971437698216,0.30149921674813057,0.35591434847339504,0.15829277976441508,0.1979739441473032,0.28658814860795634,0.05682651757034487,0.062048411087828034
305,1456703941859720,0.047140510110141774,0.3046853354317555,0.3522803223645569,0.15727000603376282,0.1962351061434962,0.2798252382304891,0.0567967285615345,0.06344978672969337
306,1456703941871750,0.048072101797428976,0.3074788801147956,0.3495312976635496,0.15744854198954208,0.19530429458764847,0.27414175214829334,0.056724787001560244,0.06502585783690062
307,1456703941871750,0.049162254519193094,0.3098878020150796,0.3476917374805643,0.15880952593627334,0.19517993832409372,0.26964790931942995,0.056619825408065955,0.06675534189175625
308,1456703941878676,0.050386929680108154,0.3119306421955782,0.3467750325736745,0.16131183235548924,0.1958454459630184,0.2664276870856925,0.056492505628498835,0.06861432781688627
309,1456703941878676,0.05172127810634355,0.31363597273371313,0.3467846651812944,0.16489305547390148,0.19727004010884108,0.2645363226945623,0.05635468628337473,0.07057692052445261
310,1456703941893687,0.05314064375086221,0.31504120384770873,0.34771496508988775,0.16947087528485597,0.199409695837344,0.2639985438265359,0.056219012832031165,0.07261593113776049
311,1456703941893687,0.05462153042334562,0.3161907363700964,0.34955138589476353,0.1749447632524912,0.2022081361681642,0.2648075895977384,0.05609845166529465,0.0747036025907659
312,1456703941901549,0.05614248299775243,0.3171334907772171,0.3522703211575796,0.18119799884880222,0.20559785719731416,0.26692505339590356,0.05600579393726511,0.07681235947735623
313,1456703941901549,0.057684837079011904,0.31791989723660263,0.35583856186678453,0.18809998365719094,0.209501190996758,0.27028156340355936,0.05595315746523609,0.07891556518169665
314,1456703941916478,0.059233296705382396,0.31859849221119596,0.3602125521725318,0.1955088472456407,0.21383144871914944,0.27477831241230893,0.05595151425940685,0.08098826205369183
315,1456703941916478,0.06077631126469596,0.31921233557335943,0.3653376277620758,0.20327433360569164,0.2184942050994234,0.28028944171309766,0.056010266487586786,0.08300786670842111
316,1456703941917478,0.06230624265381003,0.3197955220442864,0.3711474260297526,0.21124093931805324,0.22338878401627524,0.286665268053275,0.05613688803178483,0.08495479424181995
317,1456703941917478,0.06381933792242453,0.32037008994252525,0.37756363789756237,0.21925124804921084,0.2284099851956542,0.2937363227187442,0.05633664563200457,0.08681299073820858
318,1456703941931494,0.0653155425172628,0.3209436162382841,0.3844962295573777,0.22714937745965375,0.23345006337727953,0.3013181480011129,0.05661241201853638,0.08857036064858109
319,1456703941931494,0.06679819769681686,0.32150773320461123,0.3918442149131679,0.2347844325073849,0.2384009450365725,0.30921675866980636,0.05696457961294925,0.09021908192341829
320,1456703941938492,0.06827366199580338,0.3220377225386807,0.3994970194122545,0.24201384575203455,0.24315664684266466,0.3172346188433518,0.05739107618161029,0.09175580476870923
321,1456703941938492,0.06975088565289742,0.3224932535941829,0.4073364390881312,0.24870647898350137,0.24761583649095212,0.32517691746577587,0.05788747632521703,0.09318172958541363
322,1456703941953499,0.0712409546408147,0.32282024377620855,0.4152391579680217,0.25474536678243886,0.25168444628184417,0.33285786673556594,0.058447198020066565,0.09450255794541546
323,1456703941953499,0.07275661099837345,0.3229537335128125,0.42307974519127806,0.260030009471621,0.2552782221729683,0.34010671133670006,0.05906177133515827,0.09572830749948277
324,1456703941961534,0.07431174958929623,0.322821585204745,0.43073401189579674,0.2644781613259168,0.25832507811057176,0.34677312948433664,0.05972116500038357,0.09687297692888865
325,1456703941961534,0.07592088743078214,0.3223487399617038,0.43808255930959544,0.268027085463513,0.260767127124847,0.3527317353911872,0.0604141551723231,0.09795404393593701
326,1456703941976495,0.07759859854392312,0.3214617094389587,0.4450142888036253,0.2706342502081824,0.2625622693038902,0.3578854553219697,0.06112871972434543,0.09899178435871993
327,1456703941976495,0.07935890402793569,0.32009296058169856,0.45142958797622407,0.2722774417387093,0.2636852310436986,0.36216762538684333,0.06185243958176806,0.10000841633962174
328,1456703941984504,0.08121460588928692,0.3181848848300508,0.45724289041581867,0.27295428491049034,0.26412797223520934,0.36554272349036154,0.06257288518925788,0.10102709483778342
329,1456703941984504,0.08317655778626387,0.3156931214974256,0.46238436206691685,0.27268119793842116,0.2638994084166797,0.3680057053436927,0.06327796340994257,0.10207079926967715
330,1456703941991496,0.0852528776872026,0.31258908744182706,0.4668005894962341,0.2714918465495925,0.26302443922980195,0.3695799962116669,0.06395620213935425,0.10316116471350069
331,1456703941991496,0.08744812402985148,0.308861621830598,0.4704542891804476,0.2694352002415717,0.2615423384177996,0.3703143013431273,0.06459695778221027,0.10431730680782143
332,1456703941998501,0.08976247376693082,0.3045177013384672,0.47332316905683375,0.2665733176752652,0.25950462806827673,0.3702784957394822,0.06519054096557837,0.10555468842951773
333,1456703941998501,0.0921909532021353,0.29958224707984343,0.47539813560443106,0.2629789926212765,0.2569726019681694,0.36955889300280054,0.06572826491766812,0.1068840761860059
334,1456703942013502,0.09472277774965117,0.29409712394806536,0.47668107296790285,0.25873337831845705,0.2540146701982408,0.3682531755778916,0.06620242876040902,0.10831063573794683
335,1456703942013502,0.09734085407268776,0.28811949239486856,0.4771824486699825,0.2539236842111804,0.2507036814949379,0.366465231809346,0.0666062544872595,0.10983321344007102
336,1456703942021953,0.10002148933783818,0.28171969393041685,0.47691901978811724,0.2486410107477542,0.247114352652635,0.3643001140421774,0.06693379841776935,0.11144384482176715
337,1456703942021953,0.10273434172093268,0.2749788464185913,0.47591190487988755,0.24297835930931966,0.24332089936024773,0.36185930347695666,0.06717985337230764,0.11312751891693128
338,1456703942036898,0.10544263835618692,0.2679863144467481,0.4741852392952027,0.2370288294482186,0.23939492632530743,0.35923643575697367,0.067339850763375,0.1148622162557271
339,1456703942036898,0.10810368154340418,0.26083720932273124,0.47176554935157683,0.23088399743451912,0.23540360534093385,0.3565136147890923,0.06740976918983284,0.11661923131209127
340,1456703942038121,0.11066965540707578,0.25363005157138524,0.468681878549105,0.2246324605597664,0.23140815218099797,0.3537584278982037,0.06738605986462955,0.11836378570446124
341,1456703942038121,0.11308872964153813,0.2464646889885184,0.46496658935215224,0.21835853297292673,0.22746260361479526,0.35102176482241443,0.06726560400614395,0.12005593210645228
342,1456703942051902,0.11530643879358764,0.23944051252921775,0.46065665433658454,0.21214108908370988,0.22361289084772448,0.34833652473432863,0.06704571672665373,0.12165173948170693
343,1456703942051902,0.1172673012032308,0.23265495942157527,0.4557951526817244,0.2060525584777195,0.21989620555069905,0.3457172674571228,0.06672420484876683,0.12310473910855574
344,1456703942058903,0.11891663144663003,0.22620224133930172,0.4504326217646823,0.20015807044643352,0.21634065874322378,0.3431608322205077,0.0662994763523722,0.12436759622746722
345,1456703942058903,0.12020248852499492,0.22017219486069228,0.444627895720429,0.19451473043427614,0.21296523716574936,0.34064791232334324,0.06577069087580213,0.1253939507484182
346,1456703942074088,0.12107768442052459,0.21464914094679852,0.4384481079564577,0.1891710014629055,0.20978006341337302,0.33814553167777167,0.06513793551631812,0.12614034398835716
347,1456703942074088,0.12150175433141314,0.20971066995904972,0.4319676567447549,0.18416617214103226,0.20678696464704308,0.3356103109187044,0.06440240802199831,0.12656812409838364
348,1456703942082115,0.12144276865791206,0.20542632556201598,0.42526611827060407,0.17952991612847324,0.20398034851946942,0.3329923394120862,0.06356658973995029,0.12664520761336873
349,1456703942082115,0.12087886109742982,0.20185621848278548,0.4184252832212843,0.17528197468985757,0.20134837105121975,0.3302394044762916,0.06263439292057756,0.12634757351582285
350,1456703942096969,0.11979936615552977,0.19904964027363417,0.41152562994731406,0.17143201240402312,0.19887436036606676,0.3273012895611976,0.061611271280910235,0.12566038470985974
351,1456703942096969,0.11820549848316857,0.19704376263627715,0.4046426051380125,0.16797969925664208,0.19653843772455468,0.3241338418183175,0.06050428966145794,0.12457866971273715
352,1456703942105175,0.11611055155338089,0.19586250282552237,0.3978430722516694,0.16491506293370634,0.19431925791757038,0.3207025232258202,0.059322157713549546,0.12310754186041707
353,1456703942105175,0.11353963197661672,0.19551561789348174,0.39118223237026484,0.1622191404140515,0.1921957769892537,0.3169852060400937,0.05807524091225069,0.12126196855105033
354,1456703942112203,0.11052897364765993,0.19599807096613286,0.3847012455571703,0.15986494058336673,0.1901489485538336,0.3129740604969714,0.05677556636621693,0.1190661269677419
355,1456703942112203,0.10712489450174317,0.19728970052250994,0.37842570277318943,0.1578187103039445,0.18816325362351577,0.3086764922186362,0.05543684033809588,0.11655240403702961
356,1456703942119174,0.10338247048577474,0.1993552207685299,0.37236503354169836,0.15604147920716815,0.1862279851644622,0.30411517931387716,0.05407449084440197,0.1137601199347222
357,1456703942119174,0.09936400626431499,0.20214458344859468,0.3665128883577448,0.15449084439900027,0.18433823614500058,0.29932730928030843,0.0527057433076272,0.11073407023654247
358,1456703942134203,0.09513737941935405,0.20559373273731948,0.36084849844204414,0.15312293883955547,0.18249556975542025,0.29436313293129684,0.051349730349211954,0.10752298652587715
359,1456703942134203,0.09077432680570989,0.20962578026579684,0.3553389720881149,0.15189450115090045,0.1807083702079694,0.28928396400976014,0.0500276298117813,0.10417800866715357
360,1456703942141247,0.08634873233856043,0.21415261496753418,0.3499424280076085,0.1507649333601193,0.17899187843476266,0.2841597736941351,0.0487628208943162,0.10075124713097036
361,1456703942141247,0.08193496657001147,0.21907694364692065,0.3446117957320561,0.14969820521916233,0.1773679165259147,0.279066552878225,0.04758104949113763,0.09729449514250967
362,1456703942157211,0.07760631901678831,0.2242947349305038,0.33929903728963395,0.14866444889912092,0.17586430294093122,0.2740836298391022,0.04651059963786043,0.09385813162676838
363,1456703942157211,0.07343355349199808,0.2296980114735677,0.3339594702768607,0.1476410971253331,0.17451395624590915,0.26929112797504207,0.04558247358022821,0.0904902387735563
364,1456703942164238,0.06948360553318725,0.23517790404156333,0.328555820685726,0.14661346042492931,0.17335368354046712,0.2647677219283551,0.04483058345214739,0.08723594277384265
365,1456703942164238,0.06581843133000505,0.2406278537731663,0.3230616367359652,0.14557471073766617,0.1724226637725841,0.260588801714487,0.0442919516461135,0.08413697149278783
366,1456703942171248,0.062494010901434784,0.2459468325892337,0.3174637731110918,0.14452531618797304,0.17176067049748292,0.25682509394760844,0.04400690672351648,0.0812314077081537
367,1456703942171248,0.05955950471796228,0.2510424411367097,0.3117637912899727,0.1434720289027651,0.17140612179858233,0.2535417299073601,0.04401924981103183,0.07855360365994733
368,1456703942179212,0.057056561357459575,0.25583373009504334,0.3059782617910052,0.1424265534705106,0.17139407887706148,0.25079770054674205,0.044376355353607046,0.07613421587137188
369,1456703942179212,0.055018773019098646,0.26025358130543125,0.3001380513009366,0.1414040236973185,0.1717543273359988,0.24864560223682017,0.04512916286731994,0.07400031894780551
370,1456703942194213,0.05347127528181709,0.26425049571105547,0.29428673428948504,0.14042140197337108,0.1725096654879073,0.24713155692800615,0.046332015353577886,0.07217556042422438
371,1456703942194213,0.05243048766746805,0.26778966564848844,0.28847831241506267,0.13949589957329783,0.17367449764985024,0.24629519006226566,0.048042304588192176,0.07068032333481888
372,1456703942201545,0.05190399290121836,0.2708532477853343,0.28277446057213557,0.1386435015822386,0.17525379394295026,0.24616956829802547,0.05031989055651662,0.06953186930048397
373,1456703942201545,0.05189055402326455,0.2734397985843291,0.2772415305335958,0.13787766369514073,0.17724243897221859,0.24678102951198386,0.05322627030023769,0.0687444439443574
374,1456703942217215,0.052380267181572224,0.27556289379877047,0.27194752605516787,0.13720822674803107,0.17962495864013356,0.24814887138709765,0.05682348139586476,0.06832933778207782
375,1456703942217215,0.05335484419607938,0.27724902335556495,0.2669592251668143,0.13664057140649463,0.18237559480862997,0.250284896539315,0.06117273836782985,0.06829490566535473
376,1456703942224814,0.05478801599699726,0.2785349159845734,0.2623395757737231,0.1361750160307471,0.1854586947872167,0.25319283508429885,0.06633281622860479,0.0686465519648712
377,1456703942224814,0.05664604753573998,0.2794644895597917,0.25814543571422166,0.1358064497480121,0.1888293926373107,0.2568676742791673,0.07235821263058989,0.06938668571648605
378,1456703942232509,0.0588883556027315,0.28008564244837286,0.2544256752362578,0.13552419206315722,0.1924345707789728,0.2612949248523042,0.07929713646009057,0.07051464246364937
379,1456703942232509,0.061468221976269256,0.2804471055764017,0.25121962270775866,0.13531207853922605,0.19621409214946103,0.26644986131752324,0.08718938294533696,0.07202656179295543
380,1456703942239140,0.06433359589200899,0.2805955666523371,0.24855582847965854,0.13514878283033888,0.2001022824147421,0.27229679841314086,0.0960641616090913,0.07391520707466226
381,1456703942239140,0.06742798290787855,0.2805732514206682,0.2464511439373163,0.13500838941957083,0.20402962359952884,0.2787884970403995,0.10593794502610679,0.07616972165505569
382,1456703942255837,0.0706914210885185,0.2804160984081014,0.2449101373941676,0.13486122381502397,0.20792460249671008,0.28586581032589536,0.11681240606931298,0.07877533217667215
383,1456703942255837,0.0740615464447279,0.28015259870684467,0.24392487446789266,0.13467493200127156,0.21171564609118995,0.2934576731476482,0.12867250978223194,0.08171302535269999
384,1456703942262178,0.07747474432637927,0.27980330297093553,0.2434750812415038,0.13441578676040267,0.21533307392394538,0.30148151079041147,0.141484822304965,0.08495923132878988
385,1456703942262178,0.08086737335441911,0.2793809381084154,0.2435286953120805,0.13405018687073061,0.21871099891430512,0.30984410404799667,0.15519609445429203,0.08848554655141816
386,1456703942277169,0.08417703825596108,0.2788910364245127,0.2440427903389701,0.13354630140585608,0.22178911028531514,0.3184429071774031,0.16973217454021358,0.09225852923773989
387,1456703942277169,0.0873438801943833,0.27833296091926646,0.2449648252985765,0.1328757925444873,0.22451428019760186,0.3271677788594568,0.18499730501741954,0.09623960444510883
388,1456703942284845,0.09031184790191314,0.27770120462306735,0.2462341272025282,0.1320155296799622,0.22684195353099354,0.33590306114148955,0.20087385889975862,0.10038512037351682
389,1456703942284845,0.09302991137988205,0.2769868415074583,0.24778348938891087,0.13094919171500535,0.22873729930092876,0.34452992799644144,0.21722257180405422,0.10464659792470483
390,1456703942299876,0.09545318309637135,0.2761790102726072,0.2495407733590722,0.12966864877102346,0.2301761099736912,0.3529289179691295,0.23388332325995492,0.10897120837083989
391,1456703942299876,0.097543915961826,0.27526632572337123,0.2514304299916035,0.12817502060121228,0.23114543116324532,0.36098255928368883,0.25067651987621,0.11330249854427085
392,1456703942300804,0.09927234789577809,0.27423814054213336,0.25337488535652813,0.12647932527083972,0.2316439003711076,0.3685779910023737,0.26740513691851236,0.11758136091723156
393,1456703942300804,0.10061736073559534,0.27308562007243176,0.2552957695958081,0.12460265760986958,0.2316817805970948,0.37560948294348634,0.2838574798622559,0.1217472215155479
394,1456703942313809,0.10156692450722926,0.27180263466872173,0.25711501862301567,0.12257587111049172,0.23128069383463798,0.38198076094995104,0.2998107219565621,0.12573939895966174
395,1456703942313809,0.10211831119231053,0.27038650716716683,0.25875593367731875,0.1204387719393104,0.23047307910896964,0.38760705364352976,0.3150352488692328,0.12949858001011358
396,1456703942321845,0.10227807822669609,0.2688386678610244,0.26014430670831373,0.11823886130925204,0.22930140433318014,0.3924167953095908,0.3292997960847037,0.13296836042614907
397,1456703942321845,0.10206183061138513,0.26716526286376835,0.2612096975851004,0.11602968301694234,0.22781714650917767,0.3963529467823329,0.3423773012014749,0.1360968049853501
398,1456703942336856,0.10149377086182018,0.2653777386475899,0.261886903749881,0.11386885226478283,0.22607953034273112,0.3993739221758423,0.35405131308142923,0.1388379772356179
399,1456703942336856,0.10060604457652964,0.26349339419258994,0.2621176172956565,0.11181586039136662,0.22415399627548166,0.40145412180113466,0.3641227068185309,0.14115337735300335
400,1456703942344865,0.09943788926450074,0.2615358586681428,0.26185222352939824,0.109929761599256,0.22211036974307274,0.4025840688325274,0.3724163630285788,0.14301321223627053
401,1456703942344865,0.09803459507850948,0.2595354184721857,0.2610516556037463,0.10826684715337932,0.22002072989384586,0.4027701385646416,0.37878741241630365,0.14439741273828302
402,1456703942359867,0.09644628995153708,0.2575290850055825,0.25968918322644907,0.1068784017301996,0.21795701704227088,0.4020338646258788,0.3831266482430751,0.145296313263049
403,1456703942359867,0.09472656949502914,0.25556027639234347,0.25775198801347776,0.10580862224396959,0.21598845582926926,0.400410810715002,0.3853647617100845,0.14571092282598838
404,1456703942360866,0.09293100235806272,0.25367800285785946,0.2552423747436784,0.10509276685209733,0.2141788983546149,0.3979490116119273,0.3854751244101239,0.1456527478323954
405,1456703942360866,0.09111555366145409,0.2519355034494602,0.25217849120362984,0.10475559266920809,0.21258421122165547,0.3947070186204821,0.38347492068891176,0.14514317216578493
406,1456703942373867,0.08933498220011063,0.25038836231130734,0.2485944676518839,0.10481013478769664,0.21124984154932797,0.39075163460095436,0.3794245491830934,0.14421244447767764
407,1456703942373867,0.0876412773989456,0.24909220868261772,0.2445399210588341,0.10525687466406371,0.21020869503051307,0.38615547978875314,0.373425368334467,0.14289834988128397
408,1456703942381867,0.08608220379671642,0.24810016078213248,0.2400787990843287,0.10608333891301688,0.2094794464842442,0.3809945670074975,0.36561600324344473,0.14124465356731283
409,1456703942381867,0.08470001288397586,0.24746020374837527,0.23528758450711965,0.10726415687869299,0.20906538657932713,0.37534606651107427,0.35616751368919813,0.1392994089624034
410,1456703942396869,0.08353036870258632,0.24721269248005537,0.23025294697051757,0.10876158756788877,0.20895388669664944,0.36928640667839896,0.34527774826886093,0.1371132287635866
411,1456703942396869,0.08260151993181766,0.24738814383210708,0.2250689857669643,0.11052650671313809,0.20911653258711946,0.3628897968117535,0.33316520252104076,0.13473761936370895
412,1456703942404869,0.08193373989527512,0.2480054390522096,0.2198342257550681,0.1124998253866101,0.20950993889778852,0.35622718610145016,0.3200626717008313,0.13222347285404396
413,1456703942404869,0.081539046912006,0.24907051057725021,0.2146485158199972,0.11461429369400558,0.21007721773055238,0.349365606299546,0.3062109449397707,0.12961979476001878
414,1456703942420087,0.08142120913606582,0.250575549141479,0.20960996314367025,0.1167966270930537,0.21075003864498396,0.34236780023445756,0.2918527363884068,0.1269727219788072
415,1456703942420087,0.08157602906259064,0.2524987415716999,0.2048120268947406,0.11896987929859033,0.21145118453857079,0.33529201875125586,0.2772270048718731,0.12432485958535527
416,1456703942421056,0.08199189272179544,0.2548045343823527,0.20034088202482697,0.1210559743912424,0.2120974772239387,0.3281918728878329,0.2625637849001816,0.121714943657307
417,1456703942421056,0.08265055697106506,0.25744440932939183,0.19627314191682255,0.12297830045232569,0.21260292192857252,0.32111615789542924,0.2480796339004986,0.11917782164152696
418,1456703942434083,0.08352813461688526,0.2603581472238003,0.19267400213363287,0.12466425699511603,0.21288190991615452,0.3141086235637482,0.23397378045009973,0.11674472809525227
419,1456703942434083,0.08459622210630596,0.26347553500945553,0.18959584110728042,0.12604764021810513,0.21285232861274658,0.3072077372829194,0.2204250293578826,0.11444381723023186
420,1456703942441652,0.08582310257247666,0.2667184343798963,0.18707728970101434,0.1270707488503077,0.21243845495815905,0.3004465409797015,0.20758944716000025,0.11230089313860994
421,1456703942441652,0.08717495447335313,0.27000309029320824,0.18514276275664845,0.12768610652750434,0.21157354154720748,0.29385271583381034,0.19559882257638972,0.11034025666945564
422,1456703942456868,0.08861700554011659,0.27324253896854866,0.18380243318509165,0.1278577272601143,0.2102020390348458,0.28744893881911787,0.18455986785872439,0.10858557060974722
423,1456703942456868,0.09011458806371134,0.27634899465150115,0.1830526224360912,0.1275618908069215,0.20828142393927712,0.2812535574898031,0.1745540935854265,0.10706063804338273
424,1456703942464586,0.09163406618318681,0.27923614497014504,0.18287658057079575,0.12678743138678872,0.20578361073285656,0.2752815417350319,0.16563825784060995,0.10578999510493592
425,1456703942464586,0.09314361616148704,0.28182133780606317,0.18324563373747502,0.1255355705397931,0.20269592229330333,0.2695456131768646,0.15784527764722028,0.10479923735548421
426,1456703942479587,0.09461385073933189,0.2840276722164317,0.18412067970959511,0.12381934694751824,0.19902158586277552,0.2640574227783394,0.15118550432363032,0.10411502524500289
427,1456703942479587,0.09601829044383235,0.2857860046406622,0.18545400303186008,0.12166271465868995,0.1947797271278667,0.25882864820877094,0.14564829206734925,0.10376474484426162
428,1456703942480587,0.09733369367162781,0.28703685921858435,0.1871913562056845,0.11909939173509239,0.19000485772356024,0.25387190013659977,0.14120380941264782,0.10377583080178493
429,1456703942480587,0.0985402590281965,0.2877322019491085,0.18927421686864251,0.11617154028059193,0.18474588326329622,0.24920134697763632,0.13780505054692868,0.10417478578477365
430,1456703942493801,0.09962170941571989,0.2878370124842066,0.191642090588557,0.11292834913716154,0.17906468784292584,0.24483299042168152,0.1353900078892821,0.10498595441863542
431,1456703942493801,0.10056526279742146,0.2873305720212036,0.19423469506718732,0.10942457738272177,0.1730343712276876,0.24078455407672722,0.1338839747404301,0.10623013035558501
432,1456703942501864,0.10136149223710171,0.28620738698157616,0.19699385187664767,0.10571910328445443,0.1667372264024169,0.23707498291695234,0.13320195199752502,0.107923090748383
433,1456703942501864,0.10200407733425397,0.28447768429873316,0.19986494277642772,0.10187351183064802,0.16026254837919354,0.2337235864968963,0.13325113197454136,0.11007416219570942
434,1456703942516661,0.10248945095197311,0.2821674366692281,0.20279785604581183,0.09795074600683008,0.153704363160932,0.23074889303417068,0.13393342915921602,0.11268492612366504
435,1456703942516661,0.10281635200126626,0.27931789720108435,0.20574743070864013,0.09401384163327783,0.14715916319939695,0.22816731387112413,0.13514802566663672,0.11574816699680744
436,1456703942525102,0.10298530752537156,0.27598463882962787,0.20867347940121847,0.0901247606578543,0.14072373254106652,0.225991740980417,0.1367938947516969,0.11924715172245608
437,1456703942525102,0.10299808042826433,0.2722361076033311,0.21154052022888162,0.08634333277631431,0.13449313694356566,0.2242302056385315,0.13877225363051554,0.1231553056643113
438,1456703942540045,0.10285712732781571,0.2681517198386807,0.21431736555225184,0.08272631093127827,0.1285589387429835,0.22288471556575143,0.14098887717828756,0.12743632342669278
439,1456703942540045,0.1025651128408352,0.2638195657808518,0.2169767003964796,0.07932654357314328,0.12300767248351316,0.221950368799694,0.14335618334377812,0.13204472191777578
440,1456703942541037,0.10212452253037274,0.2593338165647292,0.21949474790810616,0.07619226619755423,0.11791958658480499,0.22141481838227056,0.14579498781310402,0.13692680962618303
441,1456703942541037,0.10153740571980761,0.254791950941833,0.2218510812867181,0.07336651534263826,0.11336762468150027,0.2212581281691375,0.14823582579699887,0.14202201294333824
442,1456703942554032,0.10080526053675751,0.2502919186378602,0.22402860912820416,0.07088666691110629,0.10941659831594269,0.2214530145641448,0.150619754640413,0.14726447313142854
443,1456703942554032,0.09992904945102919,0.24592934539767672,0.22601373211210665,0.06878409614649465,0.10612249923194433,0.22196542223251298,0.15289857980876007,0.15258481040879668
444,1456703942561811,0.09890931199843996,0.2417948667143184,0.22779663925492238,0.06708395081700395,0.1035319143456121,0.2227553543844524,0.1550344869615309,0.1579119459743577
445,1456703942561811,0.09774633298067492,0.23797165426176242,0.22937168317941237,0.06580502453500743,0.10168152962464243,0.2237778830819723,0.1569991166952924,0.16317487717341983
446,1456703942576806,0.09644033445812593,0.23453317557607184,0.2307377546626717,0.0649597143128012,0.10059772875986282,0.22498429365393127,0.15877218249129624,0.1683043133660613
447,1456703942576806,0.09499168189441808,0.23154121176176534,0.2318985731222065,0.06455404499549156,0.10029630184499908,0.22632334676485877,0.16033978700891302,0.17323410103968953
448,1456703942585033,0.09340111535878118,0.22904415407469733,0.23286281595619085,0.06458774291275333,0.10078227709422474,0.2277426526591223,0.16169261606654245,0.17790239811392403
449,1456703942585033,0.09167002538406692,0.22707560575455651,0.23364401680729907,0.06505434231194583,0.10204987858086807,0.229190138102893,0.16282418157634862,0.18225259511729244
450,1456703942600059,0.08980078823579547,0.22565332556941442,0.23426017297001644,0.06594131131804652,0.10408260187131677,0.23061555428790975,0.1637292589309627,0.18623401246722954
451,1456703942600059,0.0877971624717406,0.2247785592940412,0.23473302608704666,0.06723018959596344,0.1068533925194333,0.23197193965774948,0.1644026346141976,0.18980241753567706
452,1456703942601018,0.08566473492786021,0.22443581055906794,0.23508702530558595,0.06889673782320749,0.1103249109729531,0.23321693256117,0.16483825044940573,0.1929204054064588
453,1456703942601018,0.08341139381455218,0.22459310001573737,0.23534804310077975,0.07091110893189265,0.1144498706276113,0.2343138357244118,0.16502879977129895,0.19555768481090718
454,1456703942613812,0.08104780021396243,0.225202749064125,0.23554196979700928,0.07323806033378114,0.11917144226399286,0.23523236945148548,0.16496579595920183,0.19769130873356036
455,1456703942613812,0.0785878262640605,0.22620270078508364,0.23569333837630868,0.07583723176693367,0.12442372688512054,0.23594910398970287,0.1646400968691114,0.19930587911595135
456,1456703942622147,0.07604892755072735,0.2275183594201891,0.23582411988803348,0.07866351395281045,0.13013230920164706,0.2364476149447412,0.16404283254438115,0.20039373031295643
457,1456703942622147,0.0734524168911194,0.22906489846612527,0.2359527951298243,0.08166753043324528,0.13621491405574324,0.23671843991940295,0.16316664897316788,0.20095506146288256
458,1456703942636722,0.07082360575040318,0.23074996515047227,0.23609376498230417,0.08479624994085581,0.14258219517422369,0.23675892033105309,0.16200714788319975,0.20099795968202425
459,1456703942636722,0.06819178088999214,0.2324766980563893,0.23625711695364712,0.08799373909353808,0.14913868763417448,0.23657299021575756,0.1605643745343811,0.20053825201794298
460,1456703942644670,0.06558999206796287,0.2341469677637949,0.2364487242190548,0.09120205548938962,0.15578395315266605,0.2361709291575156,0.1588441881112001,0.1995991494669276
461,1456703942644670,0.06305464047979428,0.23566473982607614,0.2366706209803848,0.09436227180123355,0.16241394400990594,0.235569042467958,0.1568593503409896,0.1982106866746459
462,1456703942660031,0.06062487074826964,0.23693944397962252,0.23692157482909024,0.09741561427445894,0.1689226079270531,0.23478919464625583,0.15463019518724733,0.1964089953052824
463,1456703942660031,0.058341778895020256,0.2378892159870019,0.23719775894295034,0.10030469319300715,0.17520374877660874,0.23385812859727567,0.15218479679035998,0.19423546655216165
464,1456703942660664,0.056247457850441336,0.23844386546174545,0.23749341607729138,0.10297479593881594,0.1811531432501171,0.2328065537090541,0.1495586196296759,0.19173585942253157
465,1456703942660664,0.054383913768971524,0.23854742531188067,0.2378014157475655,0.10537520549172855,0.18667089256428573,0.23166804997473794,0.14679369242239537,0.18895940114654305
466,1456703942675667,0.05279189976565678,0.23816016153351058,0.23811364736776636,0.10746050179187877,0.19166396292372298,0.23047787789406246,0.14393738733766773,0.18595790970876905
467,1456703942675667,0.051509723587317535,0.23725995721658777,0.23842125513609672,0.1091918010520846,0.19604883850444388,0.2292717920721524,0.14104091467066782,0.1827849521721609
468,1456703942681667,0.05057208683083757,0.2358430174917371,0.2387147742379643,0.1105378845518455,0.19975417622482075,0.22808494027081622,0.13815766234642177,0.1794950436260391
469,1456703942681667,0.05000900513209378,0.23392386795622777,0.2389842455265222,0.11147615952529603,0.2027233170565015,0.2269509069059027,0.13534151370623457,0.17614289449736678
470,1456703942696667,0.049844845578705214,0.23153464425715625,0.23921936362272744,0.1119933828263842,0.2049164848109948,0.22590094281112044,0.1326452636578891,0.17278272258503413
471,1456703942696667,0.05009750444618871,0.22872370237666145,0.23940966951818896,0.11208607216848057,0.20631250326526948,0.22496341433846587,0.13011922793212224,0.1694676485950133
472,1456703942704959,0.05077773887290009,0.22555361862522214,0.23954476056452526,0.11176054070275336,0.2069098916912875,0.22416350118042624,0.12781011047148796,0.16624918471968153
473,1456703942704959,0.051888662164030604,0.22209868894713766,0.23961447818040732,0.11103252362431311,0.2067272484837062,0.2235231668564226,0.12576016564059952,0.16317680821691619
474,1456703942719739,0.05342541284663219,0.2184420671214448,0.23960904472331385,0.10992641244430609,0.2058028843787081,0.22306140934965046,0.1240066691532067,0.1602975924729865
475,1456703942719739,0.05537500840763416,0.21467269102787645,0.23951913657477816,0.10847415453207314,0.20419370660349997,0.222794765163154,0.12258169652377349,0.15765585435644724
476,1456703942720705,0.05771639253008302,0.21088213740551967,0.23933588889922394,0.10671389793264728,0.20197338443481525,0.2227379930434946,0.12151219902760388,0.15529277607957045
477,1456703942720705,0.06042067947782834,0.20716153064565673,0.23905083453313086,0.10468846657399776,0.1992298587572014,0.2229048231232297,0.12082035946759206,0.15324597301092688
478,1456703942733918,0.06345159275481704,0.20359861879508165,0.23865578866157466,0.10244375031273206,0.19606230110211284,0.2233086436622108,0.12052419759474617,0.15154899637605942
479,1456703942733918,0.06676608842307716,0.20027511839631115,0.23814269289510664,0.10002709282261896,0.19257767029518205,0.223963014691938,0.12063837606792718,0.15023077022267578
480,1456703942742051,0.07031514756936795,0.19726441463403946,0.23750342425348162,0.09748575473491962,0.1888870383052504,0.22488193488524877,0.121175137712415,0.14931496589839144
481,1456703942742051,0.07404471984743298,0.1946296840727348,0.23672957287257015,0.09486551743567959,0.18510185452005742,0.2260798366288914,0.12214529332909779,0.1488193244571641
482,1456703942757049,0.07789680221303417,0.1924224830199156,0.2358122120296336,0.0922094773982903,0.1813302988387133,0.22757133870406407,0.12355918246721227,0.14875495080844375
483,1456703942757049,0.08181064005061521,0.1906818118160229,0.2347417163545155,0.08955706585247201,0.17767385157599258,0.229370828825219,0.12542754237529935,0.14912561642364858
484,1456703942762952,0.08572403508183239,0.1894336284034577,0.2335077039462377,0.08694331506107059,0.17422418870411524,0.2314919602788066,0.12776223098319567,0.14992711758759816
485,1456703942762952,0.08957473371546933,0.18869075950078987,0.23209917084101786,0.08439837893454719,0.17106049492310277,0.23394713087724153,0.13057675311424044,0.15114674801883604
486,1456703942779167,0.09330185553149499,0.18845315884621763,0.23050486049212196,0.08194730126471586,0.16824727229673844,0.23674698873627564,0.13388654193011726,0.15276295790460165
487,1456703942779167,0.09684731032164828,0.1887084847978918,0.22871388647628546,0.07961001142342217,0.16583270552911844,0.23989999206690688,0.13770896087324,0.15474527938206564
488,1456703942781084,0.10015714757454373,0.18943299154159055,0.22671661250668732,0.07740151713531009,0.16384762484105728,0.24341204301714126,0.14206301997495135,0.1570545975141135
489,1456703942781084,0.10318278785379299,0.19059272910543357,0.22450578114687758,0.07533225621995045,0.16230508591300943,0.24728621843043666,0.14696883670316702,0.15964383546255717
490,1456703942794027,0.10588210071652979,0.19214502714104179,0.22207785769093843,0.07340856271464359,0.16120056655219162,0.2515226237349881,0.15244689873780995,0.16245910074358244
491,1456703942794027,0.10822030933643213,0.19404020988364795,0.21943451319736818,0.07163319926208056,0.1605127617553859,0.25611838378899626,0.15851719130550646,0.16544130455082598
492,1456703942801166,0.11017070637906047,0.19622346629659795,0.21658411505829253,0.07000591012983003,0.16020494063769455,0.2610677529592921,0.1651982352701356,0.1685282207440113
493,1456703942801166,0.11171515910932248,0.19863678300018905,0.2135430374213312,0.06852395826909047,0.16022681055590438,0.2663622913860405,0.17250605472376584,0.1716569003224754
494,1456703942817033,0.11284437602295588,0.20122083607662955,0.2103365693900128,0.06718262273211295,0.16051681930097872,0.2719910329115274,0.18045306599257854,0.17476630649686373
495,1456703942817033,0.11355791163148493,0.20391673288700202,0.20699921133679222,0.06597564494628183,0.1610048168986231,0.27794056958288965,0.18904685926739076,0.17779999125745707
496,1456703942824933,0.11386389849471279,0.20666750760699018,0.20357422042313095,0.06489561987440712,0.16161498940140295,0.28419499550141375,0.1982888327667233,0.18070860387280577
497,1456703942824933,0.11377850954632071,0.20941931106980075,0.20011238294716593,0.06393433123321408,0.16226896222625153,0.2907356807136004,0.2081726481625305,0.18345201144423878
498,1456703942840038,0.11332516732032134,0.21212228195187274,0.19667011982396632,0.06308303251749503,0.16288895126831263,0.2975408725131206,0.21868251545852224,0.18600082904237844
499,1456703942840038,0.11253353248075354,0.21473111940267395,0.19330713014225506,0.06233267935587211,0.1634008231220835,0.3045851395954046,0.22979137533738908,0.1883372128304727
500,1456703942841045,0.11143832049293143,0.21720539271689612,0.19008381829785734,0.061674121160782476,0.1637369183431971,0.31183868638700674,0.24145910143499863,0.19045486410809329
501,1456703942841045,0.11007800421215792,0.2195096341948854,0.18705873708944748,0.06109825893225888,0.16383849997990288,0.3192665779718732,0.2536308805738029,0.19235829637634966
502,1456703942854040,0.10849345742041767,0.22161327597114144,0.18428623808362282,0.06059617288294327,0.16365771590140357,0.3268279331495788,0.26623594719667143,0.19406148938137918
503,1456703942854040,0.10672658688263117,0.223490507728288,0.18181447257735442,0.06015922084497074,0.1631590004226465,0.3344751614867407,0.2791868462725824,0.1955860800048285
504,1456703942861892,0.10481899748786938,0.22512013812819642,0.17968383892104625,0.059779107472586517,0.16231987706984188,0.3421533376470052,0.29237937115637885,0.19695924044114108
505,1456703942861892,0.10281073642789439,0.22648552586971907,0.1779259240468459,0.059447925137699566,0.1611311569642231,0.3497998213927823,0.30569327651581574,0.1982113902060581
506,1456703942877027,0.10073916130602754,0.22757460743174512,0.17656293665292117,0.05915816889021281,0.1595965589136946,0.3573442361113136,0.318993816602915,0.1993738833688593
507,1456703942877027,0.09863797012634118,0.2283800052614872,0.17560757970260835,0.05890272865352546,0.15773180644231888,0.36470889954670704,0.33213411022714673,0.2004768035555382
508,1456703942885115,0.0965364219989973,0.22889917011737743,0.17506327183210027,0.058674863133820025,0.15556328114049525,0.37180975699597363,0.34495827776637955,0.20154698732294532
509,1456703942885115,0.0944587715160577,0.2291344993710153,0.17492461340381837,0.05846816363415796,0.1531263331388741,0.37855781751279227,0.3573052280117,0.20260638184278554
510,1456703942900110,0.09242393664553583,0.22909337737292404,0.17517800556761193,0.05827652060964057,0.15046336872164662,0.38486105440445467,0.3690129022424711,0.2036708246020095
511,1456703942900110,0.0904454129283471,0.22878810310426262,0.17580235726549362,0.05809410763780038,0.14762184517578994,0.39062669903732283,0.37992272390479087,0.20474930972193628
512,1456703942900895,0.08853143124092942,0.2282356970894612,0.17676983736244237,0.05791539503918213,0.14465229645689312,0.39576381911354636,0.38988396477680326,0.2058437755020268
513,1456703942900895,0.08668533686780774,0.2274575987391634,0.1780466387595873,0.05773520030262552,0.1416064906859211,0.4001860322271583,0.39875773399649994,0.2069494113325584
514,1456703942913896,0.08490615362313451,0.22647926845906424,0.17959372611402163,0.05754877662653642,0.1385357894227634,0.4038141842391369,0.40642034626256324,0.20805544444468382
515,1456703942913896,0.08318929402355661,0.22532970228588223,0.18136755165483404,0.05735193472556769,0.13548974804027888,0.4065788397941677,0.412765940423024,0.2091463343976573
516,1456703942921897,0.08152738313304134,0.2240408582029988,0.18332074782186583,0.057141186904523134,0.13251497472174836,0.4084224856701956,0.4177083626606129,0.21020327968274902
517,1456703942921897,0.07991117238136895,0.2226469825908519,0.18540282999268018,0.05691389816866125,0.1296542578943472,0.40930140359182643,0.4211824320000965,0.21120592817284098
518,1456703942936914,0.07833052287049691,0.22118381692456146,0.1875609531892292,0.05666842906591788,0.12694597369374774,0.40918719175851487,0.42314474019148873,0.21213418033968104
519,1456703942936914,0.07677543265527793,0.21968767526841607,0.18974076171001197,0.056404258704666206,0.12442378279531792,0.40806790439607804,0.4235741317968885,0.21296997601850828
520,1456703942944921,0.07523707225721192,0.21819441993486247,0.19188735921241115,0.056122080862099334,0.12211661024767864,0.40594876771506694,0.4224719945029099,0.2136989553439396
521,1456703942944921,0.07370878246586447,0.2167384038488035,0.19394641172283153,0.055823868355269396,0.12004887575744148,0.4028524357721285,0.41986245934329025,0.21431187978789884
522,1456703942959922,0.07218698263899487,0.21535146033158176,0.19586537067467166,0.05551290007510084,0.11824091497263087,0.3988187602331485,0.41579255058658526,0.21480569545593112
523,1456703942959922,0.07067193935234747,0.214061996544859,0.1975947668061472,0.055193742537982135,0.11670951342460409,0.39390405601259393,0.4103322414869252,0.21518413117093205
524,1456703942959922,0.06916835466658329,0.21289420866077072,0.19908949242113821,0.05487217647052961,0.11546846912299087,0.3881798613205622,0.4035742891829036,0.21545776199006594
525,1456703942959922,0.06768574565032247,0.21186741073532145,0.20030997620026883,0.054555061728949965,0.11452910765906833,0.38173122527171366,0.39563366502279534,0.21564353228492944
526,1456703942972927,0.06623859525550696,0.21099546502651015,0.20122316819750843,0.05425014041757194,0.11390068944945293,0.3746545961211333,0.3866463800583969,0.2157637955023444
527,1456703942972927,0.06484625740935493,0.21028631809547452,0.2018032878591148,0.05396578490745941,0.11359066589234044,0.3670554047596257,0.3767675361778526,0.21584496226909589
528,1456703942980928,0.06353260182933641,0.20974167862558024,0.2020323323434451,0.05371070187903359,0.11360475888141788,0.35904543313569093,0.3661685174823728,0.21591585412031702
529,1456703942980928,0.06232539346208661,0.20935690384168734,0.20190037885881199,0.05349360570581513,0.11394685840478085,0.35074004108811374,0.35503336434303473,0.2160058612009268
530,1456703942995923,0.06125541848214895,0.20912117096890614,0.2014057285608316,0.05332287573265695,0.11461875374079158,0.34225531981403345,0.34355450000770366,0.21614301588030232
531,1456703942995923,0.060355387940272426,0.20901799129134183,0.20055492875933303,0.05320621272745201,0.11561973092831981,0.3337052503027413,0.33192805391339203,0.2163521119823036
532,1456703943004025,0.05965866553760845,0.2090260881755914,0.19936268496388496,0.05315030953247435,0.11694608242269976,0.3251989541304581,0.3203490337547902,0.2166530049031598
533,1456703943004025,0.059197876324227745,0.20912062107535243,0.19785164777430744,0.05316054899703922,0.1185905848443706,0.31683812020148233,0.30900657018667843,0.21705921879810705
534,1456703943019024,0.05900346048581173,0.209274701854453,0.19605204166582982,0.053240738472935825,0.12054200436545918,0.3087146812329111,0.2980794261318602,0.21757696971588242
535,1456703943019024,0.05910224160974124,0.20946111869984402,0.19400109875758262,0.053392885611037694,0.12278468241646612,0.3009088068682083,0.2877319329357393,0.2182046889277673
536,1456703943026629,0.059516079590232245,0.2096541555947881,0.19174227089587412,0.05361701695712552,0.12529823702560566,0.29348727395806185,0.2781104785591982,0.21893309670878502
537,1456703943026629,0.060260672228516346,0.2098313731146352,0.1893242110454994,0.053911040407157704,0.1280573934598065,0.2865022630550836,0.26934062566722394,0.2197458376136425
538,1456703943033626,0.06134455735869809,0.20997520579692117,0.18679953002219687,0.05427065476540101,0.13103194264631693,0.2799906146294884,0.2615248894351863,0.22062065130844524
539,1456703943033626,0.06276835226783134,0.21007424202534786,0.18422334611344365,0.05468931274510919,0.13418682462933876,0.2739735675266057,0.2547411711314098,0.2215310214998984
540,1456703943041135,0.06452425245530329,0.21012408666453722,0.18165166436158642,0.05515824594581944,0.13748234442462479,0.268457002088955,0.2490418335953893,0.22244821749580118
541,1456703943041135,0.06659579942784001,0.2101277523263026,0.17913965415247882,0.05566656113785053,0.14087453982050752,0.263432214730847,0.24445341452900682,0.22334361492478086
542,1456703943056137,0.06895791870071546,0.21009556616580155,0.1767399242705445,0.056201416792438015,0.1443157262102813,0.2588772445502572,0.24097698854591146,0.22419115322027433
543,1456703943056137,0.07157722476884305,0.2100446150196616,0.17450090738018514,0.05674828652180988,0.14775523645497912,0.2547587464544146,0.23858919724387626,0.22496976371948738
544,1456703943063135,0.07441258749790623,0.20999779196709384,0.17246546132330912,0.05729131106217035,0.15114035382300745,0.2510343627706559,0.23724396440689388,0.22566559801131664
545,1456703943063135,0.07741595143083878,0.20998254770621452,0.17066978174488448,0.057813733642708996,0.1544174123746307,0.2476554988131019,0.23687489872242837,0.2262739127285875
546,1456703943079136,0.08053339514859319,0.21002947304932215,0.16914270046911048,0.058298407271019606,0.1575330237333721,0.24457037093283204,0.2373983558743473,0.22680051344965005
547,1456703943079136,0.08370641255660814,0.21017083573422804,0.16790541268358403,0.05872835732993519,0.16043538424520948,0.24172717672425215,0.23871708799170202,0.2272626989937038
548,1456703943095354,0.0868733915823655,0.2104391701396257,0.16697163634974863,0.05908737764001457,0.16307561456828812,0.23907723812108983,0.24072436267148517,0.22768966631974003
549,1456703943095354,0.08997125807733966,0.2108659793112973,0.166348168108716,0.05936063233785291,0.16540908084502928,0.23657798712640435,0.24330839694746245,0.22812234857012711
550,1456703943098137,0.0929372443189187,0.21148056503136206,0.1660357663937442,0.0595352318214223,0.16739664788166045,0.23419569569596363,0.24635692349249766,0.22861267361873874
551,1456703943098137,0.09571073253583923,0.21230897156746237,0.16603026677947044,0.059600751407888834,0.16900582306549763,0.2319078832980565,0.24976168436116483,0.229222242283808
552,1456703943101364,0.0982351138208941,0.21337302593644897,0.16632382271279414,0.05954966586516902,0.17021175648951203,0.22970535082209828,0.253422641505957,0.230020437597068
553,1456703943101364,0.10045959148221041,0.2146894735074315,0.1669061720791454,0.05937767849200202,0.1709980585315307,0.22759378162872865,0.25725171676245007,0.23108200656723732
554,1456703943116355,0.10234084544466386,0.21626922059479564,0.1677658510558283,0.0590839285854903,0.17135738784470309,0.2255948351573258,0.2611759214371173,0.23248420798668287
555,1456703943116355,0.10384446294623367,0.21811669915537016,0.16889129567311065,0.05867106786758503,0.17129176847215472,0.2237466589833707,0.26513978227493384,0.23430367183291537
556,1456703943124150,0.10494603849317422,0.22022937663427966,0.1702717778359855,0.058145205697387785,0.17081262159021285,0.22210376652438674,0.26910699995548665,0.23661314035130718
557,1456703943124150,0.10563186354281291,0.22259745241779658,0.1718981238764898,0.05751573220104643,0.16994053440696472,0.22073625473114492,0.27306129855170047,0.23947825239859089
558,1456703943138720,0.10589916499012933,0.22520379602540566,0.1737631770349248,0.056795035057247395,0.16870482026823516,0.21972836011962682,0.27700645654135486,0.24295450881464015
559,1456703943138720,0.10575589726035123,0.22802417470757366,0.17586199423619484,0.05599812893472058,0.1671429390552448,0.2191763803621688,0.28096554414591524,0.2470845369819279
560,1456703943146729,0.10522012846979482,0.2310277915380228,0.17819179703194593,0.055142216627608355,0.16529984131304784,0.21918602619344563,0.2849794049479208,0.2518957614293877
561,1456703943146729,0.10431908229691339,0.23417812477940222,0.18075171134979087,0.054246198279164236,0.16322727639157678,0.2198693000697245,0.28910441305046597,0.257398575928683
562,1456703943153734,0.10308791044800104,0.23743403770148985,0.18354232939088225,0.053330141672486855,0.16098307227410397,0.2213410087736816,0.2934095404784657,0.263585092531909
563,1456703943153734,0.10156827934629832,0.2407511172524402,0.18656511697640982,0.05241472505275133,0.1586303629622254,0.22371501135921973,0.2979728059701162,0.27042851284899744
564,1456703943162045,0.09980685511033102,0.24408319594384026,0.18982167783641954,0.05152066579157654,0.15623671937590786,0.2271002982352689,0.3028772390579055,0.2778831310418716
565,1456703943162045,0.09785376059197429,0.24738400849605263,0.1933128790046782,0.05066815284075808,0.15387313788689042,0.23159700283844556,0.30820655635178673,0.28588494328599096
566,1456703943176736,0.09576106228311539,0.250608926892876,0.19703784620229525,0.04987630580568192,0.15161285208699937,0.23729246292916065,0.31404078636540445,0.2943528111732118
567,1456703943176736,0.09358133160486361,0.25371670015952963,0.2009928600199891,0.049162685244534265,0.14952994840546494,0.24425746266199444,0.3204520877449372,0.30319011160146664
568,1456703943183731,0.09136631812072533,0.25667110255873204,0.20517021814743144,0.04854287579422315,0.1476977823806526,0.25254278560407445,0.3275009897601025,0.31228680526051744
569,1456703943183731,0.08916576853616551,0.25944238180589896,0.20955716066861713,0.04803015726112311,0.14618721489255146,0.26217618994779573,0.33523325061032827,0.3215218672819268
570,1456703943198744,0.0870264196039163,0.26200841429900756,0.21413497034077209,0.04763527158326055,0.14506471647206023,0.273159891166197,0.34367748161001027,0.3307660396926481
571,1456703943198744,0.08499118141548898,0.2643555144431917,0.21887835570220165,0.047366287209320276,0.14439041322168505,0.2854686158588475,0.35284362601774544,0.3398848769181861
572,1456703943206731,0.08309850939572733,0.26647888419966287,0.22375520739255042,0.04722855688118541,0.1442161604332418,0.2990482783147344,0.36272231498812657,0.3487420547557304
573,1456703943206731,0.08138194280714428,0.268382703711034,0.2287267883462592,0.047224759264850986,0.1445837287506091,0.31381533247911647,0.3732850585426122,0.35720289540254757
574,1456703943221731,0.0798697727390832,0.27007985407693275,0.2337483736763681,0.047355009172054104,0.14552317775833754,0.3296568666863441,0.38448517485119865,0.36513802852464894
575,1456703943221731,0.07858480039197109,0.27159124726179773,0.23877030124885276,0.04761701651096376,0.14705147844279903,0.34643151950327933,0.39625931773099343,0.37242707033616373
576,1456703943229743,0.0775441586483523,0.27294473859476787,0.2437393455968232,0.048006273053638276,0.14917143303798458,0.3639712755151205,0.40852942820134175,0.37896216795660986
577,1456703943229743,0.07675919188117182,0.2741736292737332,0.2486003011513402,0.04851625020763113,0.15187093186798678,0.382084140418619,0.421204913982193,0.3846512265219906
578,1456703943236979,0.07623541134417006,0.2753148240663888,0.25329765635912116,0.04913859832135495,0.1551225829909774,0.4005576115589113,0.43418485351197905,0.3894206104234762
579,1456703943236979,0.07597255684102482,0.27640676694291966,0.25777724574149397,0.049863344133139885,0.1588837472601201,0.41916277827370746,0.4473600263153141,0.39321709357109935
580,1456703943243756,0.07596479587327547,0.2774873089260605,0.261987771847668,0.050679085518454806,0.16309700290228168,0.4376588293586507,0.46061459890339196,0.39600884775981493
581,1456703943243756,0.07620108149274425,0.2785916633600976,0.2658820964324291,0.05157318374752753,0.16769105081727348,0.4557977373470188,0.47382737379170087,0.3977853325903999
582,1456703943258987,0.07666567389006491,0.2797505852908876,0.2694182216886093,0.05253195556354343,0.17258206127946085,0.4733289467968323,0.4868726491243215,0.3985560918750641
583,1456703943258987,0.07733881211508005,0.28098887986597565,0.27255992151069786,0.05354086982236442,0.17767545716869354,0.49000399528019634,0.4996208901410979,0.3983486274766736
584,1456703943266987,0.07819750456317492,0.282324298709928,0.275277028420029,0.05458475386633607,0.1828681236453566,0.5055810852567965,0.5119395060027444,0.39720564224849675
585,1456703943266987,0.07921639246648794,0.2837668307005507,0.2775454205221258,0.055648012953058386,0.18805102464361975,0.5198296558255304,0.5236940202317621,0.39518197916905773
586,1456703943281984,0.0803686320951706,0.28531834925657534,0.2793467783093415,0.05671486389985763,0.19311219229404833,0.5325349715491456,0.5347498391955782,0.3923415486480729
587,1456703943281984,0.08162674258659434,0.2869725473059804,0.2806681885709381,0.057769583012781504,0.1979400367166662,0.5435026837309211,0.5449747006755646,0.38875446847834777
588,1456703943282988,0.08296337905387885,0.288715071091989,0.28150166010782424,0.05879676778470571,0.2024268985973047,0.5525632684721973,0.5542417571382875,0.3844945667465666
589,1456703943282988,0.08435200877895581,0.29052376247681155,0.28184359505348744,0.059781610763222984,0.20647273405385158,0.5595762213435292,0.5624331360268504,0.3796373273980337
590,1456703943296758,0.08576748090182579,0.2923689504151324,0.2816942492127561,0.060710182326216285,0.2099887835089119,0.5644338728632501,0.5694437316351004,0.3742582944474463
591,1456703943296758,0.08718648172015632,0.2942137918002846,0.28105721829895297,0.06156971715945423,0.21290104172233335,0.5670646666110386,0.5751849255720797,0.3684318965071244
592,1456703943304062,0.08858786340474875,0.29601472290235403,0.27993899058775146,0.062348896665440946,0.2151533239847136,0.5674357267795803,0.5795879122761876,0.36223061771449844
593,1456703943304062,0.08995283390518047,0.2977221189792869,0.27834860271881673,0.0630381159177309,0.21670971933001096,0.565554548635184,0.582606329325385,0.3557244340883489
594,1456703943319063,0.0912650069162592,0.2992812642575006,0.2762974328006744,0.06362972027348376,0.2175562400377811,0.5614696605244494,0.5842179597427765,0.34898044640829834
595,1456703943319063,0.0925103299564654,0.30063371413517637,0.27379917167336526,0.06411819597875705,0.21770152457949177,0.555270120901331,0.5844253696902219,0.3420626506442914
596,1456703943326854,0.09367692632085688,0.30171909477304176,0.27087002039339836,0.06450030194033671,0.2171765257481957,0.5470837505252495,0.5832554448379589,0.3350317929520416
597,1456703943326854,0.09475489646066343,0.3024773360285532,0.2675291526150019,0.06477513360203535,0.21603319382116432,0.5370740773482409,0.5807578840933207,0.32794527348661284
598,1456703943341782,0.09573612548088227,0.30285127302898035,0.26379944960542784,0.06494411186738726,0.2143422241402874,0.5254360749728684,0.5770028109038753,0.3208570903980352
599,1456703943341782,0.09661413688756558,0.3027894862200999,0.2597084740542401,0.06501089183889125,0.21218998442712392,0.5123908761915987,0.5720777605389811,0.31381783367714894
600,1456703943342369,0.09738401986682983,0.302249193212659,0.2552896093518674,0.06498119125519525,0.20967478599253908,0.4981797219869196,0.5660843548978169,0.3068747417955629
601,1456703943342369,0.098042441168739,0.3011989725648328,0.25058325784092617,0.06486254660269002,0.20690271162537394,0.48305745597415284,0.5591349579552862,0.3000718305835428
602,1456703943356405,0.09858773621744578,0.29962110010945586,0.2456379619507425,0.06466401164993243,0.20398324135462137,0.4672858938916687,0.5513495374387957,0.2934500955174912
603,1456703943356405,0.09902005897142477,0.2975133132055637,0.24051128486152892,0.06439581533989405,0.20102491438826,0.45112738734798963,0.5428528837169828,0.2870477730912718
604,1456703943363371,0.09934155805739599,0.2948898762254245,0.2352702715131724,0.06406899482556558,0.19813123920785905,0.43483885966373104,0.5337722746955847,0.2809006312029937
605,1456703943363371,0.09955654146975104,0.29178188898890184,0.22999132480256282,0.0636950186894912,0.1953970285997068,0.4186665244577026,0.5242356195178989,0.2750422513183515
606,1456703943379371,0.09967159574109132,0.2882368493116558,0.22475938642792884,0.06328541640448225,0.19290529995602823,0.40284141693691927,0.5143700532641218,0.2695042632419886
607,1456703943379371,0.09969563394778144,0.284317538079752,0.21966639522960918,0.06285143043683022,0.1907248445112383,0.3875757845300143,0.5043008915599666,0.26431648957617104
608,1456703943386375,0.09963985280696727,0.2801003299385045,0.21480908510538124,0.06240370471105978,0.1889085333874382,0.3730603055789713,0.49415080406416206,0.2595069556969401
609,1456703943386375,0.0995175793715872,0.2756730513316584,0.21028626510963053,0.06195201834359664,0.18749239378102064,0.3594620455438942,0.4840390456491256,0.25510173175464435
610,1456703943401372,0.09934398787751182,0.27113252203751664,0.20619578603185015,0.061505069058934464,0.18649545118849195,0.34692303569992167,0.4740805999330913,0.25112459450707697
611,1456703943401372,0.09913567612565022,0.2665819236252535,0.2026314258454685,0.06107030745579354,0.18592028870974042,0.3355593699202004,0.4643851407247035,0.24759651743690483
612,1456703943402371,0.0989101101331726,0.2621281282984959,0.19967991383068476,0.060653820448481124,0.18575422473899078,0.3254607378738342,0.45505579338651564,0.24453500957137916
613,1456703943402371,0.09868496681712909,0.25787909339700965,0.19741827130936693,0.06026025944526368,0.1859709673500444,0.3166903255277504,0.4461877524340803,0.24195332867860975
614,1456703943416444,0.09847741743182832,0.25394138531633165,0.1959115941806256,0.05989280792359748,0.18653258394200337,0.3092850210481695,0.43786685174457085,0.2398596004549583
615,1456703943416444,0.0983033977707177,0.25041784695962777,0.19521134987943126,0.05955318567183783,0.18739163890423646,0.3032558850736633,0.4301681849729602,0.23825588715047474
616,1456703943423893,0.09817690856839603,0.24740537762726822,0.19535421258590435,0.05924169105549673,0.18849339176187618,0.29858887624571145,0.423154860323095,0.23713726743957622
617,1456703943423893,0.09810938337929993,0.24499277383870216,0.19636141734524784,0.05895728428797562,0.18977798837246604,0.2952458414208083,0.4168769697170868,0.23649101086010993
618,1456703943438896,0.09810915170331454,0.24325859456580692,0.19823857924671862,0.058697713284297334,0.19118259903251988,0.2931657761718893,0.4113708622326196,0.23629594517409938
619,1456703943438896,0.09818101439169377,0.2422690524125922,0.2009759011275853,0.05845968189295834,0.19264346249175865,0.29226635230779974,0.40665881914955204,0.23652211063358977
620,1456703943446402,0.09832594099603455,0.24207597038393353,0.20454868175903795,0.058239059169769854,0.19409779741379746,0.29244570792950014,0.40274921226464583,0.23713076831128466
621,1456703943446402,0.09854089796103335,0.24271486920717045,0.20891803239136686,0.05803112658104312,0.19548554819557637,0.2935844947382228,0.39963718990862673,0.23807479174636967
622,1456703943461615,0.09881882133882681,0.24420326226308492,0.21403171456923842,0.057830857101080164,0.19675093807424188,0.29554817105623143,0.3973058987381991,0.23929943521284422
623,1456703943461615,0.09914875346009659,0.24653923772816552,0.21982503495707803,0.05763321697624941,0.1978438098396301,0.29818952615121125,0.3957282223309473,0.24074344348168752
624,1456703943462402,0.09951616416061355,0.2497004066977333,0.2262217752475061,0.05743347755423368,0.1987207440728119,0.301351428855762,0.39486898090914735,0.24234044916801686
625,1456703943462402,0.09990346958077484,0.25364329780466727,0.23313518125505256,0.057227519879681076,0.19934595020165066,0.30486980179203016,0.3946874705729439,0.2440205958287144
626,1456703943476695,0.10029074525033664,0.2583032817343637,0.24046906269483417,0.05701210882876886,0.19969192086372198,0.3085768146968119,0.3951401295928561,0.2457123238894169
627,1456703943476695,0.10065661056187354,0.2635951050107782,0.24811905382251714,0.05678510942227623,0.19973983235570814,0.3123042590840842,0.39618303217647444,0.24734425355883688
628,1456703943483616,0.1009792464993431,0.2694140964505946,0.25597406252184746,0.05654561949467998,0.19947967825750912,0.3158870251935465,0.3977738710119901,0.2488470903172325
629,1456703943483616,0.10123750183412306,0.27563808444421545,0.26391790882437954,0.0562940014619387,0.19891014297062934,0.31916657736386395,0.39987313829764926,0.2501554732912276
630,1456703943507635,0.10141204328130628,0.28213003295772915,0.2718311359482125,0.05603180947843695,0.1980382429459371,0.32199432868059935,0.4024443486690415,0.25120969964757217
631,1456703943507635,0.10148650804041791,0.2887413680521495,0.27959296498575403,0.055761622716801795,0.1968787702073116,0.3242348348250501,0.40545331372659654,0.25195729181728393
632,1456703943508440,0.10144862011188775,0.29531592166844817,0.2870833504970423,0.05548680685965933,0.1954535644577805,0.325768737872482,0.4088666179029474,0.25235441299350614
633,1456703943508440,0.10129123478702136,0.30169436765202334,0.2941850837913517,0.05521123224534972,0.19379063163193333,0.3264953929446788,0.41264953339253924,0.25236715882545663
634,1456703943521694,0.10101327935061652,0.3077189768452385,0.30078589310616116,0.054938978748701316,0.1919231361103565,0.3263351231695146,0.4167636478666076,0.2519727497990102
635,1456703943521694,0.10062056092848205,0.31323848583644476,0.30678049845949595,0.054674055543509126,0.18988832261854174,0.3252310797405628,0.42116447464344586,0.2511606248156811
636,1456703943522406,0.10012641168814812,0.31811286350921336,0.31207258032554336,0.0544201595623868,0.18772645226572404,0.3231507179368843,0.4257992948317108,0.24993340635360095
637,1456703943522406,0.09955213751466163,0.32221777153880715,0.3165766179148875,0.054180490846086934,0.18547984249498395,0.32008691352003915,0.43060546659521454,0.24830768771515302
638,1456703943537179,0.09892723368690717,0.3254485490148811,0.32021955709082445,0.05395763717937773,0.18319207846134308,0.31605872688007597,0.4355094238584823,0.24631459230298397
639,1456703943537179,0.09828933329185056,0.3277235977181197,0.32294228200193853,0.053753535546550664,0.18090742690523923,0.31111178483608576,0.44042654987413893,0.24400006704846633
640,1456703943543763,0.09768385942394793,0.32898708074244887,0.32470087977622514,0.0535695143134524,0.17867044783614916,0.30531821820055177,0.4452620356471954,0.24142488292268274
641,1456703943543763,0.0971633603549475,0.329210861410156,0.32546769588828395,0.05340641660879725,0.17652577105805214,0.2987760887973519,0.44991273199410065,0.23866431951071151
642,1456703943558759,0.09678652288168527,0.328395616968065,0.32523217437160934,0.053264800685759145,0.17451798674533756,0.2916082596171765,0.4542699026779454,0.2358075130640234
643,1456703943558759,0.09661688451686806,0.32657107988768375,0.32400146227553006,0.053145206814576254,0.1726915952616125,0.2839606876679534,0.45822270873221277,0.23295645697195907
644,1456703943567759,0.09672129130819172,0.3237953871178687,0.32180073929236924,0.053048473999386385,0.1710909707935466,0.27600013976401405,0.4616622174033296,0.23022466543567738
645,1456703943567759,0.0971681650979678,0.32015355073034324,0.3186732173623366,0.052976085653691544,0.16976030973894113,0.2679113454889117,0.4644857306634937,0.22773553681259384
646,1456703943581992,0.09802565181140616,0.31575510672592705,0.3146797390083925,0.05293052176938983,0.16874354974426456,0.2598936105548214,0.46660124228842226,0.22562046471896852
647,1456703943581992,0.0993597253962164,0.31073104419317926,0.3098978897700889,0.052915594374577726,0.16808425261272944,0.2521569270904042,0.46793183077660266,0.22401673765672878
648,1456703943583029,0.1012323210529185,0.3052301410983523,0.304420545806514,0.05293674196835876,0.16782544285079892,0.24491764523539894,0.4684197741659028,0.22306525486905712
649,1456703943583029,0.10369956542977242,0.2994148292190621,0.29835381305101244,0.05300125865123492,0.16800938805084345,0.23839380564565585,0.46803015938213804,0.22290807933710358
650,1456703943596759,0.10681016188549239,0.29345669907568844,0.29181436829583357,0.053118437549379255,0.1686773047507139,0.232800257126534,0.466753787707195,0.2236858486408449
651,1456703943596759,0.11060397786786992,0.2875317526127862,0.28492627261739817,0.05329961662908034,0.16986897914107268,0.22834369115334824,0.4646092501596058,0.22553506552854485
652,1456703943604025,0.11511087074980937,0.28181551650671716,0.27781739458784144,0.05355812582151221,0.17162230562652134,0.22521772060508685,0.4616441200276259,0.22858528776331205
653,1456703943604025,0.12034977984367372,0.276478142527318,0.2706156466474014,0.053909143292535364,0.1739727588122104,0.2235981190447957,0.45793524946284736,0.23295622985956985
654,1456703943619027,0.12632810438494815,0.27167964431829134,0.26344527429173714,0.05436947191779906,0.1769528133822634,0.22363832515091545,0.4535881736283435,0.23875478158746527
655,1456703943619027,0.1330413745552009,0.2675654385449814,0.25642342694322906,0.0549572437487756,0.18059130843628504,0.22546530924978386,0.44873564181501874,0.24607194726090148
656,1456703943627086,0.14047320194332985,0.26426235513232643,0.24965719429756958,0.055691552973039106,0.1849127290164344,0.22917589304068506,0.4435353054511966,0.25497972199188124
657,1456703943627086,0.1485954726138861,0.2618752564675786,0.2432412326306817,0.05659201056792406,0.18993636116170404,0.23483360460995956,0.43816658625702,0.2655279460785168
658,1456703943641021,0.15736873156656378,0.2604843704690158,0.2372560413174862,0.057678210360427494,0.19567527431310985,0.2424661401263258,0.432826729824048,0.27774121176162525
659,1456703943641021,0.16674271158849638,0.2601434046586079,0.23176688940594736,0.058969098952110145,0.20213509992155507,0.2520634969407137,0.4277260338031501,0.29161593351567056
660,1456703943650124,0.17665698512024608,0.2608784723028856,0.22682334987296812,0.060482250723607626,0.20931261156764328,0.2635768408815266,0.4230822409905339,0.3071177281693563
661,1456703943650124,0.18704175698397432,0.26268783194590545,0.2224593817394433,0.062233061541035695,0.21719416670721642,0.27691816796325724,0.419114129190846,0.3241792738358055
662,1456703943657093,0.19781884999243632,0.26554241795747247,0.21869389844429757,0.06423388818481225,0.2257541294219482,0.29196081682311853,0.4160344242897807,0.34269881893612897
663,1456703943657093,0.20890294703499893,0.26938711706277857,0.21553176150157283,0.0664931726372035,0.2349534389187707,0.3085408910745191,0.4140422882490154,0.36253949852356104
664,1456703943663018,0.22020314109552913,0.2741427238558834,0.2129651356629534,0.069014599345384,0.2447385054669838,0.3264596618124677,0.4133157445694409,0.38352959359311933
665,1456703943663018,0.23162482066870907,0.27970849705218825,0.21097513488179895,0.0717963384962073,0.25504060009319224,0.345487022627461,0.41400446272888847,0.4054638407290468
666,1456703943678019,0.24307189084254205,0.28596524729074246,0.20953367712290308,0.07483042874556452,0.2657758652280732,0.36536604307160225,0.4162233162792639,0.4281058587681347
667,1456703943678019,0.25444929961455937,0.2927789067299792,0.2086054547721067,0.07810234809572965,0.27684602386540086,0.38581861039138754,0.4200470675093831,0.45119170737318615
668,1456703943686018,0.2656658017030652,0.3000045331186413,0.2081499264054945,0.08159081204486233,0.2881398134544165,0.4065520769698218,0.4255064439635652,0.47443453876779623
669,1456703943686018,0.2766368486701065,0.3074906680023461,0.2081232481061336,0.0852678256618027,0.2995351200070529,0.42726675360186495,0.43258578815354864,0.49753025270004286
670,1456703943701018,0.28728745235337494,0.3150839055366046,0.20848007435693802,0.08909900227188089,0.31090173583170116,0.44766400871440293,0.4412223902466613,0.5201640116372219
671,1456703943701018,0.2975548423829853,0.32263345574402574,0.20917515540177734,0.09304414552438038,0.3221046106950708,0.4674546513855276,0.4513075419380594,0.5420174182665857
