,timestamp,roll,pitch,yaw
0,1456703940183118,0.0727406874162405,0.006931089905633565,0.0273652023415294
1,1456703940199117,0.09348046756477,0.008767487687283616,0.03841360104083288
2,1456703940221663,0.1096820430599928,0.010414837980986287,0.04890787134446899
3,1456703940245138,0.11828236109739974,0.011712395687218177,0.05860708440534169
4,1456703940260138,0.11864809258400988,0.012574637020733479,0.06768735805334908
5,1456703940281140,0.11246143122134045,0.013010291246609039,0.076559067843416
6,1456703940306173,0.102688712252633,0.013120443673494594,0.0854655433644638
7,1456703940359613,0.09212032279297654,0.013086260495786064,0.09403393398984826
8,1456703940360368,0.08219532083662931,0.013163596446637055,0.1010177392708032
9,1456703940368561,0.07271484496680052,0.013686253070064948,0.10446953668865257
10,1456703940383399,0.06261574144138167,0.01504913469176772,0.10244459357187721
11,1456703940402364,0.0513913806550502,0.01762925961991327,0.09404554233022047
12,1456703940425885,0.04032091691675104,0.021636511957924293,0.08033536666449732
13,1456703940440425,0.03271387093860657,0.02695724019892394,0.06460883605893906
14,1456703940486604,0.03292945517980448,0.03310346511646807,0.05179199289272759
15,1456703940489394,0.044641195498068165,0.039345739943973335,0.04716661476182332
16,1456703940506463,0.06922491372345033,0.04499109976075072,0.05493659568684527
17,1456703940522135,0.10503635878230512,0.049651702839596766,0.07718650553315375
18,1456703940544407,0.14784605862351052,0.053329882274391456,0.11351187782114489
19,1456703940566408,0.19213722520688367,0.05624698019028743,0.16120691010488433
20,1456703940582411,0.23263893052626364,0.058502193145514865,0.2156626054806307
21,1456703940604653,0.2654692651394025,0.05976385820202733,0.27071817227912953
22,1456703940626917,0.2885194368471362,0.05920832137414554,0.3190294378712282
23,1456703940641459,0.30106791250115733,0.055829155315256854,0.35282695483074716
24,1456703940664664,0.30296560053591415,0.04907035067831577,0.36549739573913154
25,1456703940687636,0.29398737674381975,0.03954305579060906,0.35407963371510254
26,1456703940701427,0.2739482208982372,0.029459157045034975,0.32204192050130215
27,1456703940724958,0.2437921781933685,0.022456496574663764,0.28093175197577064
28,1456703940746958,0.2071561871522766,0.022719098580746933,0.24925611166574038
29,1456703940762155,0.1712825470541516,0.03360664743962348,0.24774818553158287
30,1456703940784124,0.14613801219964737,0.05624369866665477,0.2919381327260292
31,1456703940807128,0.1414542329129779,0.0885883846921712,0.38480563663446526
32,1456703940821906,0.16275112851281792,0.12540262012043074,0.5129701214683725
33,1456703940843190,0.20833308162149938,0.15930826250136843,0.6486854572578258
34,1456703940867190,0.2690054916856209,0.18276562384778464,0.7574679338172589
35,1456703940881200,0.33089529856433736,0.19044089205650666,0.808878157285967
36,1456703940903193,0.380095905923308,0.18119947565368283,0.7867863490535603
37,1456703940926705,0.4069253858588666,0.15899954251400036,0.6955729865447603
38,1456703940941205,0.408001158958103,0.13224974353883856,0.559943207155344
39,1456703940963206,0.3858167685725266,0.11162907424569755,0.4180283824711986
40,1456703940986207,0.3469249765986425,0.10686108377662132,0.309716128150193
41,1456703941002209,0.3001041120850913,0.12340856654242703,0.26401314893178196
42,1456703941023959,0.25501808413711163,0.16029544125665982,0.2899316636527364
43,1456703941046220,0.22089526177871394,0.20998836187685513,0.37429676387044947
44,1456703941061220,0.20459306861458118,0.2604780680618897,0.48713937467294816
45,1456703941083221,0.2081687395234443,0.2988292620291804,0.5922343605622639
46,1456703941106222,0.22709940912360133,0.3150363837309467,0.6585724474481451
47,1456703941122729,0.25074051013565773,0.30513368523913964,0.6688790355964481
48,1456703941143235,0.2659218299625446,0.27283260396857995,0.6230182132042814
49,1456703941166236,0.2629142109014453,0.2291867858829703,0.5360068256922078
50,1456703941182237,0.2412942726714475,0.18999025902583566,0.4317593854904612
51,1456703941203238,0.2126170353357215,0.17113231042651156,0.3346788458547975
52,1456703941226745,0.19781860209677876,0.1830643766932322,0.2619144069699313
53,1456703941242251,0.21957709014668844,0.22640819477157637,0.21909054797725624
54,1456703941263252,0.2924423882095229,0.2907686334030719,0.20096726716039212
55,1456703941286254,0.41508751339384714,0.3576534994910954,0.1961031456396771
56,1456703941302254,0.5685112799519003,0.4065834964000522,0.1926718301126373
57,1456703941323762,0.7214195956732115,0.42204155372948704,0.18258692189963968
58,1456703941346268,0.8405797761535707,0.398590698951635,0.16282452489792884
59,1456703941362269,0.901554905676751,0.34231639262639724,0.13465180284972111
60,1456703941383269,0.8952382845429199,0.26825612060470055,0.10209084688132063
61,1456703941406472,0.8280023177731367,0.19501821985603052,0.07051893746609521
62,1456703941423067,0.7166658950811292,0.13876948811330167,0.045649530705264896
63,1456703941443380,0.5818871853088975,0.1088306564907029,0.03268396682844398
64,1456703941466186,0.4435228858954341,0.10625271204842583,0.035265788330107
65,1456703941482182,0.3190923506643812,0.12535085730299061,0.05414066007085338
66,1456703941503183,0.2237756617503029,0.1569572256462539,0.08603131175044816
67,1456703941526934,0.1696557622432856,0.1917312182148597,0.12363471303043314
68,1456703941542397,0.1634442671764324,0.22230256974971233,0.15732739365454032
69,1456703941565400,0.20390612728686458,0.24388681839757836,0.17821676374812334
70,1456703941586737,0.28095293972799523,0.253800241004393,0.18126078749018282
71,1456703941602402,0.37765636630821886,0.25069231779117956,0.16698126568420185
72,1456703941624002,0.4748552899288895,0.2342141893251489,0.14098300726742877
73,1456703941646024,0.556474200674222,0.20537103916025057,0.11159698400880971
74,1456703941663025,0.6131087165448481,0.1672349233314989,0.08679239213411366
75,1456703941684185,0.6423826133362313,0.1253285060572801,0.07165188597826377
76,1456703941707186,0.6465014339122259,0.08705583653645431,0.06726501899808866
77,1456703941722552,0.6289729522166809,0.06006287494150461,0.07120320072392457
78,1456703941743064,0.5925564394952579,0.05006740453216865,0.07909922678270112
79,1456703941766063,0.5392898130954784,0.059073982886415285,0.08649932234966252
80,1456703941788063,0.47204751268992434,0.08474373554040303,0.090243134398724
81,1456703941803064,0.3963607598219551,0.12113551588116031,0.08907370944909156
82,1456703941827013,0.3211911280868955,0.16042005943908133,0.08360744935844366
83,1456703941848474,0.257785832028049,0.19483609220542325,0.07588108615782072
84,1456703941863475,0.21670241338603025,0.21824715684515825,0.06856464051029394
85,1456703941886753,0.20429019351725147,0.22702026407308507,0.06395427930843922
86,1456703941908477,0.2204563069552658,0.22027986449087014,0.0630801749320818
87,1456703941923488,0.25884029783792856,0.19971117453390108,0.06535147326720442
88,1456703941946493,0.30913018607309417,0.1690532401464484,0.06890478059761707
89,1456703941968499,0.36025762486112134,0.13338652628765157,0.07140650744135935
90,1456703941985496,0.40310358737465685,0.09832617652636585,0.07084333026716069
91,1456703942006532,0.43187777948783296,0.06920529216708675,0.06600136446888318
92,1456703942028953,0.4440597386958125,0.050255495256350334,0.056703471031989514
93,1456703942043901,0.43939617006248816,0.04379034927634796,0.04406749674573018
94,1456703942067120,0.4187789019178245,0.049556405380957624,0.030866487608159566
95,1456703942089091,0.38380852474802146,0.06459225967679484,0.021682146859778508
96,1456703942105906,0.33740146968063217,0.08388728478376493,0.022330964475003906
97,1456703942127003,0.28497164200995717,0.10180850314335639,0.03827914697865648
98,1456703942148213,0.23499470374770853,0.11385333014274938,0.07235074120038866
99,1456703942165211,0.19784197588998373,0.11803535267449798,0.12260222055359006
100,1456703942186481,0.18278435929846304,0.11529067269074832,0.18144528892808398
101,1456703942208500,0.1943228721718783,0.10871832421631274,0.2367908602348632
102,1456703942226137,0.22963762279723943,0.10202992219140448,0.2752154397751491
103,1456703942246803,0.27856743286800895,0.09793933745529766,0.28621651440994955
104,1456703942268803,0.32635043289465415,0.09717775684874112,0.2659792701919958
105,1456703942285803,0.35807897299389724,0.09847486037886252,0.21908894384090338
106,1456703942306810,0.36319952945969397,0.0994393437106965,0.1573745619337273
107,1456703942328860,0.33857604584476997,0.09794751100223702,0.09627391529517372
108,1456703942345865,0.2892158052743754,0.09344347020061786,0.050161161411343434
109,1456703942366867,0.226414646798591,0.08751519313648402,0.02838455564333158
110,1456703942388868,0.16387325504346995,0.08334005706035391,0.033214341922802953
111,1456703942405870,0.11322004927955262,0.08412234018645676,0.05998074439532461
112,1456703942426820,0.0808125380278901,0.09125272460498142,0.09898674922875665
113,1456703942448586,0.06710341735878149,0.10318832898929524,0.13848965976709995
114,1456703942465586,0.06842558058455284,0.11572922868794012,0.1679546254462664
115,1456703942486863,0.0797611757003363,0.12363983438711855,0.18076143708119452
116,1456703942508802,0.09684981220564923,0.12287397717902562,0.17569747081304943
117,1456703942525848,0.11686000122955854,0.11234914277661474,0.1569297902252157
118,1456703942546805,0.13793448623327798,0.09440331851543499,0.132522692327887
119,1456703942569030,0.15841822613955012,0.07370677438059955,0.11181956846335994
120,1456703942586030,0.17640091956275789,0.055203266540306994,0.10228259055193137
121,1456703942607059,0.18977270440210142,0.042145616511354164,0.10678411339158769
122,1456703942629215,0.19667014275227626,0.035150193699980445,0.12254900684690169
123,1456703942645693,0.19606391289232897,0.03255389742403605,0.1424633034251497
124,1456703942674733,0.18822712992196974,0.03167029296883698,0.1582958633562556
125,1456703942688667,0.17486024523076768,0.03020410466113782,0.16424453010841888
126,1456703942705928,0.15873746836726263,0.027187963755862053,0.15898763227756363
127,1456703942726728,0.14289452798692404,0.023173709064349717,0.14533682155983374
128,1456703942747950,0.12959510903507912,0.019782704104913423,0.12802217172515162
129,1456703942772043,0.11952379356074852,0.018930700707787206,0.11112894777479077
130,1456703942787042,0.11168076442449583,0.022068925054712276,0.09667163315151214
131,1456703942809038,0.1041720054256906,0.029682402313278348,0.08485491851347067
132,1456703942825932,0.0956163260224722,0.0411400741016748,0.07539998918208393
133,1456703942847103,0.08650563066005257,0.05486481389287746,0.06871029683265215
134,1456703942869043,0.07977961713685329,0.06870991381124417,0.06599644763538627
135,1456703942885894,0.08016580062649294,0.08039903646240759,0.06841265935789091
136,1456703942906896,0.09235005061150799,0.08792442433260379,0.0759882206531848
137,1456703942928913,0.1185615544771478,0.08987935063149324,0.08715270593055187
138,1456703942945921,0.1565546011051255,0.08573748080568445,0.09909368689806919
139,1456703942965927,0.19910602372383027,0.07603727261521756,0.10860365876569796
140,1456703942989027,0.23572005089682804,0.06236264881741023,0.11291304512354314
141,1456703943012004,0.25616926062303086,0.04704062928192974,0.11026935996222083
142,1456703943027623,0.2543920959516036,0.032603270543074894,0.10033061440371248
143,1456703943048136,0.23095294260661656,0.021186687083186474,0.08443959617869233
144,1456703943071353,0.19297266435419427,0.014071065408536549,0.06560097562921463
145,1456703943096172,0.15161541671013437,0.011489265945139637,0.04789724839839882
146,1456703943108336,0.11821617323308697,0.012716444810144311,0.03536375973802744
147,1456703943131931,0.1006216857715938,0.016375797934075866,0.03074495706985268
148,1456703943147728,0.1011564322957296,0.02086474088400547,0.034688902399398334
149,1456703943168735,0.1168181478165749,0.02478863694522844,0.04570667595401699
150,1456703943191736,0.14123652020530297,0.027286707515525768,0.060825125608766864
151,1456703943207731,0.16723821003296085,0.028176990500976287,0.07655637866418942
152,1456703943230742,0.18890172745324854,0.027927726132812438,0.08975417368026772
153,1456703943251970,0.20255018326270327,0.02752667284058347,0.0981179860038105
154,1456703943267756,0.2067624165162134,0.02832272147072042,0.10037854567004696
155,1456703943288986,0.20184793566810838,0.03186517122763878,0.09634299778580319
156,1456703943312147,0.18921800612117096,0.0397079348667832,0.0869028745141681
157,1456703943328154,0.17081753977941858,0.05311348812285299,0.07392879920420563
158,1456703943349369,0.1485845985967176,0.07260906660373344,0.05991516132708303
159,1456703943371371,0.1240126264546619,0.0974409143325017,0.04739121824492355
160,1456703943387371,0.09810187050907755,0.12512998379687998,0.0383266727066174
161,1456703943408377,0.07186458117827296,0.15145580594648056,0.033797388484611404
162,1456703943431893,0.04707488760244593,0.1711427002994674,0.03400791641360717
163,1456703943447401,0.026636059916179712,0.17924204942522518,0.03856224993071598
164,1456703943468619,0.014144537238273558,0.17281708250380173,0.04677320757413539
165,1456703943491665,0.012753381517871396,0.15228107821240036,0.05781529982086911
166,1456703943509405,0.023832768506038594,0.12180789658783057,0.07063460451685061
167,1456703943529414,0.04600252068707861,0.08861111086437913,0.0837173454607534
168,1456703943551758,0.07497289927118159,0.061350441672164045,0.0949966859007551
169,1456703943568759,0.10440757736915111,0.0482184819854002,0.10218100619351164
170,1456703943589026,0.12772247587014254,0.055283346771630965,0.10353794796933408
171,1456703943611992,0.1403246069310989,0.08545990959011403,0.09879176035469407
172,1456703943628055,0.14141585844653032,0.13815948409673212,0.08955523698832782
173,1456703943650124,0.13445030440028619,0.2093780100120354,0.0788596550465579
174,1456703943671018,0.1258232450819865,0.2919208048493626,0.06987341978458836
175,1456703943687019,0.12220183434620728,0.3757237748392881,0.06449216406635794
176,1456703943709045,0.12763697326729814,0.44864477978569756,0.0626873465654597
177,1456703943731560,0.1418100925476904,0.49826900697271337,0.0631191161988779
178,1456703943747030,0.16031704088764354,0.5148847508613461,0.0647758062312516
179,1456703943768037,0.1769553224723056,0.494934292559724,0.06872990254679771
180,1456703943792050,0.1869830052367305,0.44345770180956473,0.07886173989244308
181,1456703943809050,0.18978054787693244,0.37396389163441224,0.10078147960048549
182,1456703943829254,0.18963031736168998,0.30509328668672725,0.13910000200571593
183,1456703943851599,0.19428582838579742,0.25506333795855335,0.19421407438301216
184,1456703943874264,0.212011143565758,0.2362685442472192,0.26023519098417613
185,1456703943888552,0.24824460632720613,0.2524624184737311,0.3252716282734602
186,1456703943911602,0.3029024881583741,0.29939765947529495,0.37425520973319937
187,1456703943934079,0.36904468390142703,0.3677039648006923,0.3934743317179657
188,1456703943949294,0.4336097470555017,0.44578161575485054,0.3752979442528519
189,1456703943971337,0.4808168004362313,0.5212762418869147,0.3213438092691665
190,1456703943988321,0.4977290913405009,0.5814149354806489,0.24268980112127894
191,1456703944010298,0.4795995233966439,0.6136208854834094,0.1567986995826802
192,1456703944031819,0.4318698286659619,0.6075552420716342,0.08231929032485119
193,1456703944048326,0.3674319509609035,0.5584198314787592,0.03393965340524525
194,1456703944070327,0.3007418332065382,0.4700563612945663,0.019237203178294186
195,1456703944091368,0.24214033974677354,0.3560096661300936,0.03819411838239576
196,1456703944108328,0.1952706844558835,0.23748487245160907,0.08469678907535895
197,1456703944132377,0.15848704702601016,0.138519667824657,0.14872349824542597
198,1456703944151388,0.1288290239509401,0.07992031611132494,0.2182122417560693
199,1456703944168354,0.10576333265645595,0.07395690830802301,0.28045001395323194
200,1456703944190355,0.09236014896732045,0.12135997648456952,0.32357150066954415
201,1456703944211362,0.09345765694763983,0.21122179856804177,0.33872957634160156
202,1456703944228408,0.11219543303750912,0.32356949455441975,0.32263896463664293
203,1456703944250636,0.14699489513317376,0.4339036532814587,0.27925454141042955
204,1456703944271412,0.19064504305304736,0.5187221884586721,0.21924891138845384
205,1456703944293392,0.23208550470662756,0.5607856275072404,0.15692546973426982
206,1456703944310430,0.26015449336144997,0.5527601703296571,0.1055968753942847
207,1456703944341409,0.2674849143097088,0.49820907200531594,0.07334562059737036
208,1456703944353411,0.25261945514629597,0.4097464735305862,0.06096344268768934
209,1456703944370411,0.2195756661298698,0.3051403179094797,0.06288070443266616
210,1456703944391661,0.1756774798249833,0.20273395325904275,0.07055168251762108
211,1456703944413413,0.12912258223496023,0.11752308689378747,0.07664895997474873
212,1456703944430615,0.08716894558138524,0.058741699425153615,0.07807930361909238
213,1456703944451560,0.05499009813713797,0.029201548664390134,0.07649820863935068
214,1456703944473512,0.03502043936291083,0.02613728579448707,0.07634017153120772
215,1456703944490539,0.02681683816704688,0.043020656410261676,0.081643782850234
216,1456703944511651,0.027542540733163486,0.07171004704230918,0.09344551198453732
217,1456703944534115,0.032984438882711534,0.10436891910037889,0.10902501164247429
218,1456703944549956,0.038795386047415004,0.13479404314379526,0.12315894175808074
219,1456703944572064,0.041633599409862415,0.1590634179124326,0.13048120816531658
220,1456703944592958,0.03999128907120516,0.17561479392697227,0.12766111533219412
221,1456703944618090,0.034569209546472704,0.18492527768817474,0.1145018396139039
222,1456703944631472,0.028049303891560927,0.18892677250303058,0.09380339569028616
223,1456703944654091,0.02421211447672794,0.19025287301867363,0.07036851610436669
224,1456703944669987,0.026592943548206863,0.19141180560588267,0.04963246095569728
225,1456703944692091,0.03710716678270223,0.19401036051100812,0.03626570423485054
226,1456703944713983,0.055122169183000475,0.19819822963373027,0.03301339228852653
227,1456703944730510,0.07729813512668861,0.20252002421060275,0.04003889437124293
228,1456703944751018,0.09828740137270726,0.20428925608144283,0.054976971917571005
229,1456703944774016,0.11217495553831205,0.20042380950620164,0.07368712305657289
230,1456703944791018,0.1143355934736299,0.18850043222933735,0.09142939447496444
231,1456703944812020,0.1031418457957515,0.1677149050563193,0.10404230144373773
232,1456703944834035,0.08083229587327251,0.1394902020132766,0.10877800320086842
233,1456703944850050,0.053079222520732806,0.10757101508431849,0.10468809080998139
234,1456703944872050,0.027353456043380207,0.07752210830735355,0.09268463678042545
235,1456703944894051,0.010707520449214879,0.05565540041701346,0.07544054342660075
236,1456703944911052,0.007746925528003857,0.04760128095620123,0.0571109023092227
237,1456703944933407,0.019353190163437683,0.05694267598156717,0.042665593878546224
238,1456703944954041,0.042417982666687386,0.08436952631017665,0.03668825455247292
239,1456703944969921,0.07062247088378049,0.12759031807284957,0.041842299667685025
240,1456703944993079,0.09614535356553892,0.18188244260815412,0.057584595694128875
241,1456703945012920,0.11202228635680804,0.24093485026357936,0.07983460035399814
242,1456703945038715,0.1146442163754487,0.29768403713843367,0.10203079825291979
243,1456703945053507,0.10560565948425146,0.34506847649204186,0.11737087153267554
244,1456703945073794,0.0919954791678776,0.3767929719984199,0.1213329051659647
245,1456703945090508,0.08454997198527871,0.3881680181494006,0.11328563437593656
246,1456703945113511,0.09393052695035646,0.37693778767734276,0.0964127853114819
247,1456703945133817,0.12637392532085062,0.34389534960198875,0.07608798106407406
248,1456703945150330,0.18051146340266477,0.2930956705671705,0.05764017129998805
249,1456703945174330,0.24691648170140781,0.2315817317166781,0.04463474709485673
250,1456703945193548,0.3109658538211698,0.168642064034826,0.03832224301992054
251,1456703945210332,0.3582386292558852,0.11465795833911714,0.03817449716687814
252,1456703945238770,0.3804502526149201,0.07960312068615522,0.042911939488689904
253,1456703945253561,0.37936468401362544,0.07132553040548688,0.051333977562141815
254,1456703945270561,0.366598704544324,0.09391874242626375,0.06252436084294581
255,1456703945293562,0.35878883243051746,0.146642518051269,0.0754457439052608
256,1456703945317563,0.3698132450540746,0.22375298284933404,0.0883679096416665
257,1456703945330857,0.4036494894965767,0.3152379447185067,0.09874093758616516
258,1456703945353873,0.45172031074554714,0.40812622611755617,0.10383740937350394
259,1456703945373875,0.4965386345462323,0.488059888239658,0.10187832237091761
260,1456703945391116,0.519943232174091,0.5411406717803643,0.09290916611576243
261,1456703945412876,0.5114587290242697,0.556271425589184,0.07882191873225003
262,1456703945433818,0.4723304322591524,0.5279092746921769,0.06253245679589174
263,1456703945450107,0.41359438705104434,0.4584389137694447,0.046897058091672585
264,1456703945473108,0.35011062742613386,0.35891204710538754,0.03402576618316415
265,1456703945493327,0.2944032141232048,0.24726604386914855,0.025221446283460444
266,1456703945516326,0.25337519901044714,0.14424743354481692,0.021260213487444772
267,1456703945533995,0.22842192813607406,0.06841053389884214,0.02255861678549621
268,1456703945553640,0.21730997657291937,0.03196412063381983,0.029006742454198643
269,1456703945576648,0.21598496078856466,0.038681726512953665,0.039613902631339695
270,1456703945593354,0.21970293978264505,0.08407852436833675,0.0523221588509076
271,1456703945613356,0.22383665339894923,0.1572990085243818,0.06429320115384964
272,1456703945636881,0.22470079605840565,0.24390533400164738,0.07274141874181009
273,1456703945653390,0.22039815920834918,0.32878903076236804,0.07607903356921203
274,1456703945673605,0.2114339030210609,0.3985670215187885,0.07484531668757172
275,1456703945696391,0.20058151753084633,0.44311816750012784,0.0717768217851443
276,1456703945720392,0.19154305065871394,0.4563580770776684,0.07067337427094865
277,1456703945733981,0.18676515841758376,0.4366513316168587,0.07442705016833505
278,1456703945757191,0.18571715272888692,0.3871189567278405,0.08326616582010882
279,1456703945773191,0.18484642015875827,0.31561292499367993,0.09433402574767358
280,1456703945797194,0.17928208193340234,0.23380128799839675,0.10298554142401622
281,1456703945817194,0.1652876889799154,0.1550509602925182,0.10509151617115137
282,1456703945833488,0.14220768216934765,0.09148992762317283,0.09898924949682913
283,1456703945855282,0.11301220849920722,0.05123541785489272,0.08602976301123948
284,1456703945876586,0.08318555419644258,0.0368350383199247,0.06966770587771624
285,1456703945893284,0.05848619017292584,0.0454521565986105,0.05385737537812921
286,1456703945915286,0.042691066642012436,0.07056275511939951,0.041608956868806654
287,1456703945937079,0.03640068202987727,0.10434962612043815,0.034173732504361815
288,1456703945953613,0.03735029743184959,0.13985565984739728,0.030976434908301376
289,1456703945975631,0.0418895609788642,0.1722599835572282,0.030213617863872503
290,1456703945996598,0.04677861394093068,0.19911443185960026,0.02984154148292671
291,1456703946013599,0.05039789225357807,0.21977566887701516,0.028515250069207815
292,1456703946035665,0.05286788799808349,0.2344744856273755,0.02608550517327841
293,1456703946057009,0.05521410498097694,0.2434646301567458,0.02350853901271425
294,1456703946072927,0.05823742353402292,0.2465389665124848,0.022282314664558295
295,1456703946094928,0.061841688831371734,0.2429927651477836,0.02366529841652813
296,1456703946115935,0.06516661718619725,0.231952208922046,0.02798111682956696
297,1456703946133486,0.06726698552271966,0.21290424877194952,0.03429639012481409
298,1456703946154958,0.06773470333560674,0.18624162858520138,0.040645396725980026
299,1456703946175959,0.06682559952912613,0.15365427135189194,0.04474392441777913
300,1456703946193979,0.0651156630541553,0.11824376644067966,0.04488171730958729
301,1456703946214963,0.06302605317156788,0.08429473917848958,0.04059175613015904
302,1456703946236979,0.06051814498787708,0.05670229590711809,0.03285378279937273
303,1456703946252991,0.057066699152328794,0.040147496720232066,0.023867483805172656
304,1456703946274990,0.051923442412586424,0.03822864338475035,0.016601613072058333
305,1456703946295991,0.04465113856994035,0.052824087955345746,0.014289776431653935
306,1456703946312993,0.035777235583101384,0.0838820517796524,0.01988188020386187
307,1456703946335534,0.027236488155665792,0.1295926747166371,0.03533916258494634
308,1456703946356446,0.022256744871066284,0.18665449984565474,0.06073686625826964
309,1456703946373220,0.024565616531234975,0.2503310142458417,0.09344517008813555
310,1456703946395221,0.037128622834813975,0.3142775177066802,0.12798689704140753
311,1456703946424436,0.060896946082466104,0.37051510931958404,0.15713428376731084
312,1456703946433704,0.09410997212659437,0.4101153094243204,0.1741927435893939
313,1456703946455630,0.1325001323621272,0.4249223266201837,0.17554004941566775
314,1456703946476601,0.17037618797316145,0.4100409848214596,0.16207407827267842
315,1456703946493597,0.20222280677668997,0.3661886940825271,0.138748375984246
316,1456703946515634,0.22428328135212314,0.30076475457549234,0.11249605588931698
317,1456703946536674,0.23562114556648686,0.22685915836662637,0.0896747875882142
318,1456703946553669,0.2384004331817193,0.160283744532967,0.07418183683296155
319,1456703946575642,0.23747528976679905,0.11562689265136701,0.06683338352263757
320,1456703946596645,0.23953802651407916,0.10278356070692758,0.06599662742287307
321,1456703946613680,0.2518581442728779,0.12510268151482937,0.06901602019513049
322,1456703946635944,0.2803448301107601,0.17942004116131416,0.07368253276088774
323,1456703946656807,0.3268867990821209,0.2574005363142384,0.07899825776644259
324,1456703946673804,0.38687962135652554,0.347313904967827,0.08494707363833866
325,1456703946703804,0.44878294236484295,0.43566150065852716,0.09167197129504787
326,1456703946716836,0.4971683520939682,0.508638677849553,0.09881834452996384
327,1456703946733612,0.5186446247434383,0.5538637137555471,0.1054953059856501
328,1456703946755656,0.5076933781223412,0.5627757877817383,0.11066808585713517
329,1456703946776883,0.46894172224686,0.5334323471003174,0.11350540169578274
330,1456703946799769,0.414465937428358,0.47247165133357316,0.11348055612520389
331,1456703946815661,0.3578584865061301,0.3946202224103998,0.11039695921795215
332,1456703946838606,0.3086355377527827,0.3189933212074899,0.10451269993266206
333,1456703946859897,0.2699264652453835,0.26323306798912105,0.09667483841426779
334,1456703946877653,0.2399539594875327,0.2379748010300279,0.08826392214776105
335,1456703946898619,0.21537836333129684,0.24406133203789007,0.08093885049597394
336,1456703946919817,0.19384086143780047,0.2733992232372615,0.07637444878729313
337,1456703946935855,0.17437828945628878,0.31257760194200124,0.07612937039129307
338,1456703946957958,0.15643302123352715,0.34746386379727084,0.0815647296600475
339,1456703946978991,0.13909534435353574,0.36710058479353014,0.09359494229236483
340,1456703946995797,0.1214393226660114,0.36587600903225864,0.11212448926400775
341,1456703947019931,0.10341605654886041,0.343716283103949,0.1353300182276755
342,1456703947039512,0.08620566417213597,0.30473647906462026,0.15930166603906223
343,1456703947055027,0.07159695238784561,0.2551972984538151,0.17857669244057556
344,1456703947078029,0.06094730691455055,0.2016234612165742,0.18763385418531628
345,1456703947099070,0.05454069873620847,0.1496256450858835,0.18280875747239403
346,1456703947115030,0.05166628193414057,0.10352790181482849,0.16378794840542002
347,1456703947138552,0.05115176618349007,0.06651667307769078,0.13398811254370732
348,1456703947159065,0.05188535927015356,0.04085325361199548,0.09959522693139156
349,1456703947175067,0.05305117706317969,0.027829310088054653,0.06760307486337853
350,1456703947198068,0.05412115268297697,0.027491786615190496,0.0436150236104648
351,1456703947219069,0.05479339208959903,0.0384282169611738,0.03026685953413053
352,1456703947235487,0.054960171760392,0.05788346131900326,0.02684909871447999
353,1456703947259972,0.05464307453258577,0.08224835580674272,0.030192512947081945
354,1456703947279183,0.05386078037299007,0.10774400594316053,0.0363492001172918
355,1456703947295974,0.05252968959301933,0.1310685811476392,0.04226375309505438
356,1456703947318975,0.05052655248312523,0.14986131092336774,0.0466644971734106
357,1456703947339797,0.047901759722849345,0.16295574747731356,0.04985922877859305
358,1456703947355289,0.045075665656467215,0.17043512736730318,0.05276217293082144
359,1456703947384625,0.04285013217438565,0.17345766333431442,0.05588102644455536
360,1456703947399625,0.04220428197257847,0.1737863953120292,0.058874102537127555
361,1456703947415293,0.04396665319316511,0.1730470775782638,0.06078623900211991
362,1456703947438814,0.048498628541113795,0.17193870590711452,0.06061932094146308
363,1456703947459362,0.05553566564243843,0.16977451505209856,0.05780040940784917
364,1456703947475626,0.0643216327597245,0.16466427236483067,0.05232869997489009
365,1456703947498542,0.07404337857502616,0.1543563080573426,0.0446540636315978
366,1456703947519620,0.0843046959937718,0.1374225507650106,0.035479950167243625
367,1456703947535809,0.09519710741336128,0.11429864071941127,0.025671672465088703
368,1456703947558829,0.10673438720192537,0.08775365010171107,0.016340896986306704
369,1456703947579565,0.1179743470816961,0.0625895524429047,0.009022824320294144
370,1456703947595571,0.12656627160882564,0.044648065599224414,0.0057345200810197065
371,1456703947618568,0.12929977292759218,0.03944005136210837,0.00868801573291732
372,1456703947639675,0.12360624809559151,0.05083068561232963,0.019573682049714655
373,1456703947669962,0.10938764813704868,0.08015067596905513,0.038589403359283535
374,1456703947678663,0.09035352930386831,0.12588032148415032,0.06365778859636724
375,1456703947699665,0.07417109114213401,0.1838096418110613,0.09038604433471949
376,1456703947715924,0.0710146354000606,0.24748319713242292,0.11313076698364699
377,1456703947738654,0.09056486903415041,0.3088341246257874,0.12700806867449838
378,1456703947760977,0.13820999232347145,0.3590694519862811,0.13004702088908582
379,1456703947781776,0.21190550163377977,0.3899090576106329,0.1243356258535074
380,1456703947798765,0.30131693651545227,0.39513550931194613,0.11531555885493082
381,1456703947820766,0.3900985351121427,0.37217892285697746,0.1093179801147496
382,1456703947835562,0.46073876552249776,0.3233087126500385,0.11048746509706778
383,1456703947858579,0.5002266898601705,0.256025233716561,0.11871156952332516
384,1456703947880581,0.504537023551081,0.1824062491855151,0.12968078681248968
385,1456703947901954,0.4804585644272551,0.11738307075837481,0.1370346085307091
386,1456703947918582,0.44403620048937703,0.07614404689697656,0.13545295493191595
387,1456703947941040,0.4156520296916569,0.07107153733030484,0.12315582742244946
388,1456703947957986,0.412816067794857,0.10880174756238017,0.10269958579125739
389,1456703947977896,0.4431226113253896,0.18809824066543826,0.07986736222258896
390,1456703947999897,0.5006748499976705,0.2991562438448733,0.06131048233342093
391,1456703948021938,0.568266047235325,0.4247068880516379,0.051998685642226636
392,1456703948038891,0.624624540384811,0.5429877819392542,0.05342527123419353
393,1456703948059934,0.6530435533920123,0.632302476519274,0.06312442113776486
394,1456703948088940,0.6471055751092774,0.6763569075599337,0.075635129496925
395,1456703948097936,0.6112819854517799,0.6688842900441092,0.08465302463501859
396,1456703948120936,0.5570680334503488,0.6157260113620127,0.0856888998611626
397,1456703948141893,0.4971415927481185,0.5330839070408452,0.07817534914378728
398,1456703948158887,0.44039627302301004,0.44219443638978634,0.06597316439811582
399,1456703948180871,0.3900037613520702,0.36252815014550127,0.055873292869538994
400,1456703948201903,0.34512860508695753,0.306526884324035,0.05466958300360998
401,1456703948225886,0.30480930283275137,0.27792710918792995,0.06608165528223314
402,1456703948240853,0.27096810932418686,0.273439449297116,0.08889693265646365
403,1456703948261915,0.24805849932494742,0.28580209888606756,0.11721540484959068
404,1456703948278913,0.2395551534910186,0.3062847145095427,0.14280113532157504
405,1456703948300911,0.2441849790427238,0.32606010525356766,0.158547194396682
406,1456703948321911,0.2550800530086055,0.3370103711575687,0.1613968105646429
407,1456703948338770,0.2626686532929589,0.3326867819574518,0.1532216321397655
408,1456703948360014,0.25922459359109173,0.30957816709613223,0.1392487457805212
409,1456703948381016,0.2420083177842914,0.26822751699379577,0.12506204781715852
410,1456703948398017,0.21343101295069405,0.21350411301757352,0.11397560369123194
411,1456703948420017,0.17896961964890945,0.15359514566081103,0.1061136183568156
412,1456703948441859,0.1445808193758507,0.09788250389684756,0.09928148673777688
413,1456703948457861,0.11479595947465344,0.05445996445684554,0.09072290310851745
414,1456703948479862,0.09179768977650125,0.028228485226180565,0.07872900854440848
415,1456703948502968,0.0754527078175997,0.020172294831499196,0.0635125329182257
416,1456703948517967,0.06417553572224716,0.027843642507629746,0.047212589985991406
417,1456703948540659,0.05619511409369737,0.04664629722608628,0.03315914845524631
418,1456703948569941,0.05056364529540373,0.0713584570720966,0.024706502900719757
419,1456703948578676,0.047468765699673246,0.09740400755222242,0.02406733969308724
420,1456703948600677,0.04789294909617599,0.12156900928627276,0.03154560687381278
421,1456703948621996,0.052952926237252486,0.1421079068173137,0.04537031548150026
422,1456703948638484,0.0632320861955322,0.15840862582768575,0.062115666375227446
423,1456703948659994,0.07829264863416453,0.17048992907088314,0.07757111219651237
424,1456703948680996,0.09646983534419258,0.1785596602202514,0.08785468510549509
425,1456703948697999,0.11500496611532691,0.1827349969234835,0.09046898726286523
426,1456703948719997,0.13053307063798222,0.18291499448186294,0.08495455769174118
427,1456703948744025,0.13986142352614434,0.17876375929523244,0.0729235798605939
428,1456703948758069,0.14083281500916298,0.16980203839729918,0.05751060402274653
429,1456703948780033,0.13295368300342736,0.15564809349300432,0.042476424708566586
430,1456703948803034,0.11753621397632236,0.13642251255583426,0.03125774496067434
431,1456703948818035,0.09734188092286038,0.11322739009578803,0.026222749327370294
432,1456703948841936,0.07591217619923937,0.08849798644817226,0.02832951034715079
433,1456703948863208,0.05679200557099758,0.06599698075422862,0.03727059114365042
434,1456703948878207,0.04279182812384318,0.05032474041503202,0.051998082313722466
435,1456703948900208,0.035451389271599014,0.04602163542853263,0.07133141830561007
436,1456703948923210,0.034927056834546714,0.056535421806249715,0.09429845348066412
437,1456703948939298,0.04045203535015347,0.08338940145421107,0.12001524981625111
438,1456703948960094,0.05124355950861974,0.12575607345688572,0.14718243125466582
439,1456703948983094,0.06739087769556128,0.18040658532339143,0.17350096118944913
440,1456703948999096,0.09009397305674059,0.24186423116970046,0.19538701737725644
441,1456703949020096,0.12082979865030447,0.302666160953684,0.20830655562979913
442,1456703949058317,0.1596113021472968,0.3538586237436855,0.20789890777354184
443,1456703949061348,0.20321448105337633,0.38601044635462034,0.1917932370401902
444,1456703949080312,0.244626077385984,0.3909582298642003,0.16160543089511695
445,1456703949103313,0.27462969793885966,0.364170190013644,0.124180612024135
446,1456703949119314,0.2854067973518704,0.30715314044108055,0.09109474792213446
447,1456703949140326,0.27478728600737196,0.2289579405444932,0.07600182933396035
448,1456703949163335,0.2490920573797433,0.14582328446171627,0.09034434342596401
449,1456703949184624,0.22284681835382028,0.07846130872681384,0.13869735462218635
450,1456703949201337,0.21486492722601122,0.04728921687833119,0.21538427924747444
451,1456703949222704,0.241673059029194,0.06670950700012826,0.30403212692993636
452,1456703949244354,0.31043286886914623,0.14002742033676402,0.3811729835363833
453,1456703949259397,0.41414142285660926,0.25666066958559447,0.42348964490873126
454,1456703949282684,0.5316375372972657,0.3929712490283313,0.4162567056674603
455,1456703949304615,0.6333289085881322,0.5172723635242087,0.35929296563435814
456,1456703949319613,0.6908860716293628,0.5982337228665676,0.2675265844663054
457,1456703949342409,0.6869671148512763,0.6143115773725997,0.16587217920540334
458,1456703949364438,0.6208856079392263,0.5608193430749429,0.08085376029680219
459,1456703949381421,0.5080887787650189,0.45170150823697647,0.03253163673001718
460,1456703949402456,0.37417478310044705,0.31507260845030555,0.029440061921313123
461,1456703949424421,0.2464815958310569,0.1842115549673674,0.06747687908173361
462,1456703949439429,0.14684746524752887,0.0875530489286388,0.13226623733408843
463,1456703949462439,0.08775887671879899,0.04133021468421017,0.2038626252484093
464,1456703949484441,0.0719910286469756,0.04700898875472241,0.262458824624935
465,1456703949499447,0.09454403670409073,0.093508670271078,0.29365543281667905
466,1456703949522725,0.14549391327519684,0.16251218053164895,0.29187938822974274
467,1456703949544652,0.21266135425826133,0.23451185836883176,0.26096754658971105
468,1456703949559666,0.2834054748622862,0.2936039486617729,0.21185035282525028
469,1456703949582746,0.34552865631338736,0.3300272045855969,0.15834760927023073
470,1456703949604678,0.3880810305081932,0.34046638894864756,0.11273498840774916
471,1456703949619683,0.40298843786111566,0.3267854394077104,0.08258950758345268
472,1456703949642480,0.38737262650080106,0.2940497262509216,0.0696545169488792
473,1456703949665685,0.34502140749623655,0.24861096586219428,0.07062207736964812
474,1456703949678875,0.2853678457761057,0.19678535673339317,0.07920884626534815
475,1456703949702956,0.2200429566753187,0.1442778069208269,0.08871098587887123
476,1456703949724892,0.1589689507813065,0.09609831773214328,0.09423008290287882
477,1456703949739692,0.10812685092290916,0.056523266398758765,0.09392767312277739
478,1456703949762705,0.06959480812868132,0.0288170590715261,0.08898782388245412
479,1456703949784707,0.04292790197371662,0.014779166288071268,0.0823996045493079
480,1456703949799922,0.026638545263775817,0.014392724012276694,0.07712864508607901
481,1456703949822949,0.019119754991213007,0.025797373957717244,0.07454037008935177
482,1456703949844720,0.01895592654611855,0.045641790499482957,0.07382751081330455
483,1456703949860941,0.02481946519107325,0.06975399140949125,0.07265610270559542
484,1456703949883910,0.0351957454558771,0.09399476125317634,0.06858304491163424
485,1456703949904905,0.04818069033031073,0.11508039416648118,0.06043066044739481
486,1456703949920902,0.06155064000421798,0.13112656551558538,0.04893549102832589
487,1456703949942987,0.07315197399155537,0.1417530550160079,0.03646966855650009
488,1456703949964266,0.08143993178983013,0.1477652474416307,0.02610569446811061
489,1456703949981266,0.08587219174453252,0.15057328318385066,0.020505562497344688
490,1456703950002603,0.08694658868541931,0.15155129688185565,0.021063355515666824
491,1456703950032338,0.08588759721834534,0.1515061340631582,0.02754625068590922
492,1456703950041300,0.08415464973635883,0.15037813354903984,0.03826364865266493
493,1456703950062273,0.08297667450293121,0.14725266559818762,0.05061388991905516
494,1456703950084191,0.0830496675645065,0.14070179539989064,0.06177590466745254
495,1456703950100972,0.08443933090771484,0.12939610071681726,0.06935076220964749
496,1456703950122184,0.08665017733959406,0.11284296003383044,0.07185996248992525
497,1456703950144488,0.08878492144058717,0.09203448688084387,0.0690829706471592
498,1456703950168990,0.08975057475989566,0.06974565293636656,0.062213765588652055
499,1456703950181990,0.08853752858323034,0.05025770772502068,0.053758002229882425
500,1456703950204205,0.0845967364766574,0.03844638048274153,0.04705935095743736
501,1456703950219992,0.07822248649978758,0.0384500126786949,0.04541773034415723
502,1456703950242503,0.07073846240833752,0.052381991537414005,0.05096113321223879
503,1456703950282008,0.06433308657901485,0.07959483605213102,0.06366676666496908
504,1456703950287239,0.0615743666660465,0.11677739180643489,0.08102359920725091
505,1456703950309223,0.06479858003620914,0.15880036738281852,0.0986505934756751
506,1456703950324224,0.07559182021727798,0.19993662223662437,0.11176784958293538
507,1456703950347023,0.09447260389922472,0.23500902399329673,0.1169769288073392
508,1456703950362024,0.12075625724374585,0.26014627107448285,0.11359552833957486
509,1456703950385026,0.1525602452327441,0.2730428196769568,0.10393515229715691
510,1456703950407330,0.18695976925069085,0.27281155678406344,0.09234016344765586
511,1456703950423028,0.2202946740998244,0.2596424870550556,0.08333553062055013
512,1456703950444539,0.24859136182610084,0.2345369921412354,0.07966613405441073
513,1456703950467851,0.26815802872108446,0.19935372240239438,0.08116805060112339
514,1456703950482837,0.27656996008579754,0.15724035375109388,0.08511226586680884
515,1456703950504854,0.27411678828153313,0.11325452565052534,0.08790902984534851
516,1456703950527833,0.2651658297517314,0.07471176669480205,0.08723916486474592
517,1456703950542852,0.2582652805437782,0.05070854985952961,0.08336072307996194
518,1456703950564575,0.26394963041039515,0.05049268765425032,0.07880789404982363
519,1456703950587861,0.29043017200847865,0.08086526055610546,0.07667803823411623
520,1456703950602865,0.3390489912422278,0.14334190437228872,0.07856264561288305
521,1456703950624897,0.40226956064443364,0.23207263557957764,0.08339353926044765
522,1456703950647595,0.4659871995646647,0.33345119677718493,0.08793981862399544
523,1456703950662596,0.5153094808142588,0.428053249568306,0.08870432575273561
524,1456703950684897,0.5405646612632308,0.4950014792484678,0.0840771902685235
525,1456703950707863,0.5401704533510413,0.5179305741210202,0.075397171258609
526,1456703950722861,0.5192198855825612,0.4906422568719622,0.06628067657551236
527,1456703950744609,0.48530294939786917,0.4200301880510712,0.06072196443958462
528,1456703950767618,0.4443611580967064,0.32458732494023923,0.06117308487624157
529,1456703950784619,0.3989418426607017,0.22869203273184474,0.06763551959529678
530,1456703950804620,0.34957794652347624,0.1549087444375599,0.07803691549296364
531,1456703950834604,0.29783655552860633,0.11744726578210439,0.08941441945956506
532,1456703950844889,0.24822862268311102,0.11912306837599763,0.0990948840357219
533,1456703950863897,0.20711120713435646,0.15230420422231286,0.10528413297966975
534,1456703950887899,0.17936762376346238,0.20269670921474373,0.10705551300969504
535,1456703950903898,0.16550699439475774,0.25417134801650776,0.10417245510031832
536,1456703950924900,0.16130062612766374,0.29303980498824506,0.09710841688754723
537,1456703950946913,0.16001652200421188,0.31077796909736016,0.08719355360106527
538,1456703950963923,0.15561104352797944,0.30486445770172216,0.07654638289825307
539,1456703950985925,0.14500237047773337,0.27799543666170595,0.06761704620422077
540,1456703951007924,0.12854391373319718,0.23631057554758775,0.06251530525402842
541,1456703951023925,0.10899578503670722,0.18735734439437665,0.06242276472323801
542,1456703951044437,0.08986993968312733,0.13839141369576122,0.06726239725971143
543,1456703951066947,0.0739638625611648,0.0953463288114443,0.0756680099711247
544,1456703951083946,0.06254395249270774,0.06247520358445422,0.08526343972862996
545,1456703951104948,0.055262861707582094,0.04238938736427949,0.0932178409841828
546,1456703951127949,0.050620096589162375,0.03615139010165038,0.09694704938527147
547,1456703951144491,0.04667042341515889,0.04326723469407602,0.09477047153574567
548,1456703951163974,0.04174768727271894,0.06170303723942658,0.08635261259297493
549,1456703951186970,0.03508115337712653,0.08816848605534466,0.0728133015495619
550,1456703951203971,0.027206344634720655,0.11875884182394159,0.056460917509257996
551,1456703951223977,0.020021914637821752,0.14976702606731457,0.04021222116803084
552,1456703951246988,0.0163404785501822,0.17831282997334028,0.026879638896378778
553,1456703951269003,0.018925040411076698,0.20251479366172884,0.018541583593453027
554,1456703951284194,0.029267723895949428,0.2211842271228006,0.016140827181642493
555,1456703951307192,0.046594680863539156,0.23328068667001334,0.019365011430514466
556,1456703951324003,0.06760250076015308,0.2374952381862197,0.026814580512915846
557,1456703951344741,0.08719536592596916,0.23227473669624485,0.036417071046965066
558,1456703951367029,0.10007195625746135,0.21639715103949186,0.045965482667296116
559,1456703951384024,0.10258634815162669,0.1899340897840258,0.05360098078192294
560,1456703951405361,0.09412117380460294,0.1552036597734389,0.05810135293742349
561,1456703951427329,0.07740305136179781,0.11723321593134105,0.05895626800857545
562,1456703951443539,0.05764873460578908,0.08337197287039037,0.056315537469871335
563,1456703951464049,0.04089267602755392,0.061991499914181056,0.05091793478874929
564,1456703951488048,0.03211589511414361,0.06058382450222816,0.04404547297729201
565,1456703951509330,0.03382304594089583,0.0838459003717001,0.03745325950371067
566,1456703951524336,0.04553328593209372,0.13235873025852585,0.033166947978790336
567,1456703951547065,0.0643129467121491,0.20219654208261492,0.03306922003569904
568,1456703951569073,0.08606933826356186,0.2854170238864508,0.03832048814293208
569,1456703951584293,0.10700450481973091,0.3711513640621931,0.0488291775925219
570,1456703951607306,0.12457594009796985,0.4470452722029963,0.06310254011679543
571,1456703951629288,0.13759280412298738,0.5009874799581008,0.07874408621766062
572,1456703951644830,0.14556949659956253,0.5231879650772437,0.09355035143637859
573,1456703951667106,0.147916443846308,0.5085713259224076,0.10670345798824495
574,1456703951698107,0.1437143842716932,0.45910319934812277,0.11926955591473257
575,1456703951704388,0.132537940720289,0.3852152171169246,0.13344378800191273
576,1456703951727438,0.11611778723092239,0.30524750281660223,0.1507766404427115
577,1456703951743628,0.09988245272270593,0.24214693949688426,0.17049559230377684
578,1456703951766138,0.09308908670707113,0.21768669423994236,0.18922168044509194
579,1456703951787474,0.10668635496729295,0.24583194322469012,0.20250233802705198
580,1456703951809427,0.14919969885143383,0.3277000531419314,0.2072211971686249
581,1456703951832853,0.2222622735204823,0.4501223562112809,0.2032374965318915
582,1456703951847156,0.3180958174070449,0.5883119189209669,0.19317445438378705
583,1456703951869165,0.42065557488623095,0.7116517237982634,0.1806513467253297
584,1456703951886399,0.5104667731074641,0.7910127642854494,0.16831812054609455
585,1456703951907427,0.5713006962541678,0.8061168560221845,0.15697828838459182
586,1456703951930168,0.5957729460139114,0.7514938330297921,0.1460588655541781
587,1456703951946180,0.5872913849701936,0.6392959329090163,0.1347142086150725
588,1456703951967190,0.5574874849957407,0.49729836244226805,0.12270875674844625
589,1456703951989196,0.5205564557319633,0.36163547704627563,0.11072746043723912
590,1456703952006191,0.48751060201739943,0.26606198316449275,0.10023330543664684
591,1456703952027490,0.4630694539078976,0.2315231613999575,0.09308069907293118
592,1456703952050218,0.44585972366363863,0.26009198665214545,0.0909507856730346
593,1456703952066212,0.43053502248152364,0.3354831939173375,0.09461312982330947
594,1456703952087569,0.41015392232061143,0.4294833567095913,0.10319154778257841
595,1456703952111226,0.37835864260232543,0.5113974374078231,0.11386722006561635
596,1456703952126215,0.33165535424206677,0.5569507370515027,0.12244532622861713
597,1456703952147227,0.27149094596058815,0.5539146455034506,0.12477207017344265
598,1456703952170237,0.20490947309733526,0.5033838599523853,0.11838541258759532
599,1456703952186467,0.14278828665232063,0.4173060704548108,0.10352674329797482
600,1456703952207449,0.0960460416688535,0.31387418243577214,0.08298948002539723
601,1456703952229238,0.0715401235870311,0.21250248680117356,0.06096731228897202
602,1456703952254466,0.06958134484508285,0.12961082773934002,0.041549878612507064
603,1456703952267474,0.08413588373876958,0.07583729553107815,0.02750820929008928
604,1456703952290734,0.10551578836492774,0.05489540895336512,0.019699478061214564
605,1456703952306739,0.12425538785506139,0.0640514118815086,0.01713449265646549
606,1456703952327740,0.13437650885385613,0.09593612079936957,0.01759516189211127
607,1456703952349490,0.1346652276529358,0.1410763015902368,0.018579188923754035
608,1456703952366493,0.12773386061436853,0.19031782905369732,0.01825381353062598
609,1456703952387833,0.11779115890711046,0.2364308280191966,0.01608442324079424
610,1456703952410760,0.1084742089863369,0.27461012536339546,0.01292236260608042
611,1456703952426494,0.10168630004767451,0.3020578448877662,0.010554246254889111
612,1456703952447507,0.09758458808370098,0.31713237422147666,0.01091943775462405
613,1456703952470516,0.09524151070403493,0.31861796225758304,0.015299157305078205
614,1456703952486516,0.09338226134968425,0.30554989535259364,0.02376042845554558
615,1456703952507834,0.09088593633496231,0.27775749088685486,0.03503355385011261
616,1456703952531519,0.08705030545992117,0.23692795580093048,0.046844499850437586
617,1456703952545528,0.08169086490030432,0.1876790933723382,0.056568368664789336
618,1456703952567538,0.07507780785828923,0.13799874156762634,0.061992483753245196
619,1456703952590868,0.067743525480864,0.09854836873586585,0.061997216422025374
620,1456703952606540,0.060315101918512797,0.08073242353677772,0.057011007956245086
621,1456703952627832,0.0535500318289328,0.09397010399662531,0.04910707065324661
622,1456703952649560,0.048608115643137655,0.14300330339566533,0.04161805300446827
623,1456703952666561,0.047394723384211024,0.22608042548543753,0.03824409060824614
624,1456703952689562,0.052674312560163965,0.3344825977746168,0.041836594202133294
625,1456703952710820,0.06762972810680956,0.4534175619357918,0.05325570325282631
626,1456703952726564,0.09471901603731239,0.5641025832843323,0.07078758150306336
627,1456703952749581,0.1340941578970868,0.6468900793274224,0.09047615292882424
628,1456703952770582,0.182300358151039,0.6852882813060561,0.10736990695851831
629,1456703952786583,0.23215222718359957,0.6704368010305004,0.11724276993209644
630,1456703952809585,0.2744032439581279,0.6050190905645327,0.11806653723445759
631,1456703952830587,0.3010976547080809,0.5050623344304433,0.11059177141936023
632,1456703952846595,0.30950627514891393,0.3980921260025263,0.09781824969250347
633,1456703952868827,0.30474231707487776,0.3170383052821863,0.08367074406188882
634,1456703952890604,0.29915259348815854,0.2910312273412517,0.07154802723891997
635,1456703952912604,0.3077953680262734,0.3360360427394468,0.06339657678011518
636,1456703952936588,0.3414672699740123,0.44896784030439796,0.0596038814280928
637,1456703952950839,0.4006747387553951,0.6077447293819699,0.059564802006549226
638,1456703952973841,0.47416446082309044,0.7772024242852148,0.0625258169862433
639,1456703952987841,0.543464902817022,0.9185149610105218,0.06828801151136223
640,1456703953010843,0.5913924280615444,0.9990149526738762,0.07741656205625795
641,1456703953032851,0.6099168903093297,1.0,0.09076590280218293
642,1456703953048862,0.6029847775887028,0.9211956182816486,0.10847720299861471
643,1456703953069868,0.5828219229402192,0.7811569182705485,0.1290020679048919
644,1456703953092862,0.5620406189147241,0.6131279930732207,0.1488276972503016
645,1456703953108863,0.5462667730978891,0.45655577699231203,0.16326568216418913
646,1456703953129867,0.5316696565605423,0.34605309065189466,0.16807969248597354
647,1456703953151890,0.5088391428555618,0.30137558751276444,0.1612168682601509
648,1456703953168884,0.4703503615030226,0.32232684427945846,0.14379785208853083
649,1456703953190885,0.4167090910022529,0.3905944492867318,0.11988489115120268
650,1456703953219889,0.3565503365033696,0.4773755791042893,0.09515118177682481
651,1456703953228889,0.30138278758684556,0.5533031549669701,0.07506000089366054
652,1456703953249948,0.25909890970171157,0.596820555957081,0.06327778944215501
653,1456703953271906,0.23068262746268128,0.5984842817117276,0.060795005356463726
654,1456703953288907,0.2114648097701432,0.5606861259434901,0.06586914961855078
655,1456703953310168,0.1950054393024963,0.4940116750259956,0.07468758464635253
656,1456703953332129,0.17671215663261824,0.4122864537041907,0.0825679526105685
657,1456703953349145,0.1555167125233257,0.328221971049674,0.08541267828435926
658,1456703953370147,0.13352221455279442,0.2508296652882051,0.0809806182784121
659,1456703953392409,0.11433124655189432,0.18488937068665495,0.06950146344865747
660,1456703953409147,0.1009495089734771,0.13202562066153134,0.05339127979056188
661,1456703953430150,0.09414961588102697,0.09248101489855813,0.036236422496998
662,1456703953452585,0.09195998145405436,0.06657574340912972,0.0215207406548099
663,1456703953468733,0.09047099387472815,0.05516934506237772,0.011604269482364054
664,1456703953489729,0.08560095443765148,0.05907701731398329,0.007268003408868559
665,1456703953512607,0.07504533785184853,0.07799114851589632,0.007863187693739162
666,1456703953528729,0.059513711820638485,0.10966336201983926,0.011871829761131075
667,1456703953551523,0.0426663037287635,0.14984689412545618,0.017580881069145227
668,1456703953572524,0.02979278962827997,0.19303684406055938,0.023609639139009132
669,1456703953588525,0.025841068877617,0.23368149483983977,0.02915018238407096
670,1456703953610757,0.03357954368238882,0.2673931224880834,0.03391450384583164
671,1456703953640535,0.05249626300776269,0.2917274699536686,0.037891592088109785
672,1456703953648536,0.07873318490496546,0.30627675002181026,0.041076579063889264
673,1456703953671546,0.10605658129530081,0.31208821544737303,0.0433150369475898
674,1456703953692755,0.1275810731029285,0.31068727270014707,0.04431262212003022
675,1456703953708725,0.13773341946527645,0.30313264447084304,0.043754257155606824
676,1456703953731714,0.133870246949847,0.2895047801538701,0.04143940642746576
677,1456703953752775,0.11708357542988555,0.2690599548759477,0.03738843018193006
678,1456703953768776,0.09195133086408684,0.24103817323263496,0.03193223238169191
679,1456703953791777,0.06525578741255424,0.20585128616140025,0.025781914909998663
680,1456703953812779,0.044007964240922605,0.16616343784777987,0.020010881909410687
681,1456703953828779,0.033401599137505344,0.12730669360887045,0.015870950492424457
682,1456703953850715,0.03538909855009688,0.09664990719344481,0.014446419271890878
683,1456703953872750,0.04833527674222471,0.08196456561474263,0.01625113577566308
684,1456703953888721,0.06778356931073484,0.08933730262644415,0.02091864068113575
685,1456703953918720,0.08797848263399188,0.12145894996658876,0.027134093071805677
686,1456703953931722,0.1036051359014937,0.17694103053461757,0.03292617258025213
687,1456703953948231,0.1112891605080707,0.25075067418487285,0.03633558402468523
688,1456703953970740,0.11061164399911423,0.3352998693633051,0.03628255242055028
689,1456703953991748,0.1044951788111525,0.4215555857507339,0.033259434852777034
690,1456703954007743,0.0987414456154102,0.4998180835571102,0.029437701814644425
691,1456703954030757,0.10047629517797863,0.5602892980288744,0.027990806605563554
692,1456703954053762,0.11556822150877628,0.5938828560933901,0.03180685160531524
693,1456703954067816,0.14572626668539293,0.5937030904130323,0.04208682973034215
694,1456703954090765,0.18658202193751866,0.5572222899920267,0.057438501712446126
695,1456703954112771,0.22811860483672605,0.4885652983618068,0.07395541315872009
696,1456703954128765,0.25804327543888894,0.39977276666771894,0.08644526978063126
697,1456703954151070,0.26723256783551025,0.30984024539393923,0.09049943883355928
698,1456703954172075,0.2548159040474674,0.24098727767861966,0.0846365947329173
699,1456703954195335,0.2298889408701158,0.21288932871033392,0.07156500026632177
700,1456703954211072,0.20819878959657648,0.23686003870726782,0.057848938407211455
701,1456703954232134,0.205013889337231,0.3122936646917176,0.05184878290219853
702,1456703954255130,0.22785114672562565,0.4266720449340611,0.060505129331289695
703,1456703954271094,0.27294892691882827,0.5587565665022115,0.08613672254897191
704,1456703954292319,0.3272349499130374,0.6834132249483937,0.12467689985819067
705,1456703954315289,0.3745164058874712,0.7765175880934434,0.16642970169786916
706,1456703954331347,0.4025138058574588,0.8192076586874574,0.19942480872355872
707,1456703954360455,0.4072540948997067,0.8014625307090782,0.2141141225188605
708,1456703954375161,0.3931039044341801,0.7248812115187308,0.20720466615460928
709,1456703954391140,0.36915000461664155,0.6037756112057766,0.18265226932878667
710,1456703954412422,0.3443005979591363,0.4632190004746175,0.14937060160801519
711,1456703954435476,0.3237006699166549,0.3333975970817208,0.11709373044279456
712,1456703954450987,0.3080066915384751,0.24142201260837032,0.09273441414544928
713,1456703954473987,0.2953129032961413,0.20349436772359716,0.07893228316081632
714,1456703954495251,0.2838750539470351,0.22061525280778466,0.07488523042888386
715,1456703954510989,0.2733893013931658,0.2794902677150979,0.07820807583160304
716,1456703954531996,0.26403696656728776,0.35795843748351286,0.08634635559710735
717,1456703954555041,0.2546588484160932,0.4325160222660409,0.09694177921546057
718,1456703954571037,0.24226272722793057,0.48504136605540576,0.10762562511324093
719,1456703954594004,0.223828407917229,0.5065167178853253,0.11606582907509265
720,1456703954615005,0.19919074979050608,0.49696099688562073,0.12053230298277705
721,1456703954631200,0.17256873689818103,0.46240995192509865,0.12047653061029155
722,1456703954654226,0.15117729108846806,0.41094264603019065,0.11648483908095254
723,1456703954675509,0.14158136003131636,0.34984744717099464,0.10956955036595288
724,1456703954691504,0.1460868977049093,0.2849511619353219,0.10041581350228682
725,1456703954714231,0.1612831569246427,0.2215647988134679,0.08920354839609221
726,1456703954735786,0.17934961033003144,0.16549906284993998,0.07602846652037204
727,1456703954751542,0.19125776897433439,0.12284576829649127,0.06142376648447877
728,1456703954774542,0.1903382765219207,0.09841726481756802,0.04651565115714595
729,1456703954795791,0.17474937420745248,0.09388663706049792,0.03276067591485758
730,1456703954811544,0.1478686096600858,0.10692960001278025,0.02152318749003531
731,1456703954834303,0.11650570903074459,0.13197744478151793,0.013738343989358774
732,1456703954855546,0.0878876674843491,0.16218188420804114,0.009742931451697415
733,1456703954871215,0.06693200866825572,0.19157596301758456,0.009261005481894949
734,1456703954894181,0.05499019477938986,0.21646622317970113,0.011522459951617455
735,1456703954915487,0.05034485621189608,0.23561617036033145,0.015488627674322667
736,1456703954931184,0.04988839753641879,0.24939702049968546,0.020134681902731346
737,1456703954954222,0.05097416886682455,0.2584859128553826,0.02471472709014336
738,1456703954975223,0.05254317888741044,0.2627755498790286,0.02892289043856402
739,1456703954991485,0.0551648243781109,0.26097766835224545,0.03287274193723497
740,1456703955014227,0.06022436687381979,0.2510743320327239,0.036872099271938276
741,1456703955035748,0.06881858844047584,0.23141531871893722,0.04107225259947147
742,1456703955051029,0.0809094200442749,0.20199404552021108,0.04516326269860559
743,1456703955074030,0.09502554557055375,0.16535266339156512,0.04829659485842227
744,1456703955095292,0.10848263711131487,0.1266911498756663,0.049327084456612026
745,1456703955111030,0.11794924963072342,0.09303176088778317,0.04732239330889387
746,1456703955134678,0.12025790194502442,0.07163648107323026,0.042149674493481844
747,1456703955155559,0.11339304073053776,0.06818914177432107,0.03487539484175062
748,1456703955171503,0.09740069366568396,0.08538506537043639,0.027747156263182998
749,1456703955194534,0.07478781469892283,0.12238898875048107,0.023662009231358437
750,1456703955215308,0.05014343363687501,0.17519095024643488,0.025220674413180735
751,1456703955231507,0.02913888663161555,0.2374960962944453,0.03366296809370798
752,1456703955253713,0.01732882261780109,0.301692226494624,0.04810614257089172
753,1456703955275713,0.019062046488436343,0.35965502577992153,0.06548392572597683
754,1456703955291714,0.036550257057466895,0.4034629316113611,0.081355595145245
755,1456703955314717,0.06906894190505408,0.4262690529425878,0.09136702690060086
756,1456703955335736,0.11245016676841263,0.42350532659516454,0.09278877876897784
757,1456703955351245,0.15927554203546349,0.39431627069552055,0.08547117798550512
758,1456703955373284,0.2001941510489133,0.342782034025616,0.0718339693045666
759,1456703955395614,0.22638214806946608,0.27826587380201034,0.05598929150395895
760,1456703955411248,0.232473990217984,0.21427822013925296,0.04248569744591042
761,1456703955433250,0.21880724934156315,0.16571211474239775,0.03522112970847341
762,1456703955455772,0.19194320396924686,0.1450869114677972,0.03678253828326411
763,1456703955470739,0.16311381252655177,0.1591022214777705,0.04808011284387942
764,1456703955492558,0.14506540261955514,0.20680800654190282,0.06802240809006697
765,1456703955515703,0.1482763852578851,0.2799413298109421,0.09326052595392223
766,1456703955537547,0.17759662000326212,0.3650111189900113,0.11842132361916965
767,1456703955552791,0.230193253804611,0.4462118740219899,0.1372775919715217
768,1456703955575790,0.2955367777543833,0.5084085171114541,0.14478904490156413
769,1456703955597792,0.35792248837968227,0.5398840510406275,0.13920907748358866
770,1456703955612792,0.40123876038500567,0.5347360952917878,0.12308413193321631
771,1456703955637607,0.4143318608774258,0.49451909661311994,0.10240949001514145
772,1456703955656912,0.39444937105056443,0.4283105126173863,0.08426750545969387
773,1456703955672907,0.3470953974939579,0.3505010588778788,0.07416234696634418
774,1456703955695909,0.28284143433249553,0.27655934749000194,0.07429385382809406
775,1456703955717125,0.21331707918477075,0.2182920876177707,0.08329510550217718
776,1456703955732912,0.14837983699202723,0.18072568727270893,0.09717204593250199
777,1456703955756733,0.09493999012725313,0.16201349195942832,0.1108420483057077
778,1456703955777734,0.056794060342107565,0.15607932339198202,0.11974201749480357
779,1456703955792735,0.034876035725301915,0.15626662635758373,0.12110912407484542
780,1456703955815737,0.02786533602147827,0.1580854265953429,0.11457309201990294
781,1456703955837700,0.03318396594726267,0.16011591249755394,0.10185890317254306
782,1456703955860042,0.04803922969881477,0.16328415610705194,0.08581280187717276
783,1456703955876036,0.06992264796588034,0.16931894378134993,0.0693172355175982
784,1456703955897039,0.09628299039233576,0.17919410981408168,0.054582154127505375
785,1456703955913040,0.12375983920111062,0.19210783325044067,0.042902053252913554
786,1456703955936656,0.14781769396410252,0.20527947120750342,0.0346900837538063
787,1456703955957345,0.1634512747117158,0.2145794704722999,0.02963207824575631
788,1456703955973345,0.16688406640510559,0.21575729042754713,0.026936040702312276
789,1456703955996347,0.15733182070855778,0.2058635033452851,0.025664061384461267
790,1456703956017355,0.13765393365184397,0.18441685586774928,0.02505211601809446
791,1456703956033349,0.11339115864043559,0.15392274662726826,0.024694238262760817
792,1456703956056173,0.09075406481583086,0.11948731792988351,0.02454856216781119
793,1456703956077475,0.07469822079274009,0.08751685109369806,0.024843679310767024
794,1456703956093176,0.06794505990627722,0.0638394125733175,0.025999784179803285
795,1456703956116176,0.07101713473367557,0.05190165225460105,0.028577106497636194
796,1456703956139469,0.0827004464861683,0.051765010315389264,0.03313801496627476
797,1456703956153477,0.10034656465508436,0.06033525390644177,0.039939249880986946
798,1456703956176648,0.1200052319381157,0.0727168927009223,0.048565882595039425
799,1456703956196479,0.13684373744512857,0.08408161090836877,0.057766408893435366
800,1456703956212606,0.14614199154987528,0.09125683024976323,0.0656667486583197
801,1456703956236223,0.14460833711909152,0.09345143840896841,0.07030739077213835
802,1456703956256741,0.13144131420252084,0.09198231818631777,0.0702903514442634
803,1456703956272734,0.10867360478410092,0.08929355851229842,0.06533175810729341
804,1456703956296737,0.08067109344374357,0.0877780381542336,0.05658695138781641
805,1456703956317736,0.05300026748638213,0.08886716698134425,0.046649501126243234
806,1456703956332738,0.031079457754993215,0.09263424536229871,0.03915260769964168
807,1456703956355674,0.01900274630713734,0.09791032975793283,0.037987985680274824
808,1456703956377544,0.018737614813059873,0.10275531178172688,0.04629864335235646
809,1456703956392713,0.029744909783168037,0.10508638506101395,0.06552806256773391
810,1456703956416545,0.04905525612773849,0.10328756827155632,0.09484911795848933
811,1456703956437629,0.07187590758818173,0.09664715069737126,0.13120583514725284
812,1456703956452847,0.092757559098329,0.08550625384658546,0.16997079898983394
813,1456703956475850,0.10717598770211682,0.07111142822728977,0.2059540589441611
814,1456703956498850,0.11313077716520915,0.05532485986953872,0.2344055512559745
815,1456703956512851,0.11214797701195635,0.040406481877294335,0.25181872035930875
816,1456703956536361,0.10908275307198713,0.02893195633041072,0.25656751601297895
817,1456703956558870,0.11050049459168751,0.02366093037559234,0.2494132405173664
818,1456703956579870,0.1220540601147271,0.027079347807792923,0.23367537208428002
819,1456703956595871,0.14580911831242585,0.040543311285989085,0.2146618660519881
820,1456703956618872,0.17862973717920122,0.06332120173581707,0.19816451506152105
821,1456703956632873,0.21250780187459298,0.09208558345983299,0.18847605282203772
822,1456703956656185,0.23710408358744986,0.12132634321531921,0.1869426400226886
823,1456703956679186,0.24374190981669147,0.14473378963460268,0.19186460542170086
824,1456703956693187,0.22906681814861388,0.15707627710096753,0.1996566362962289
825,1456703956716188,0.19644596088588445,0.15581587888634044,0.2064188320631373
826,1456703956739483,0.1543509443727253,0.14184093413121823,0.20909086199023202
827,1456703956760326,0.11269199109014899,0.11910916936849104,0.20592020508151937
828,1456703956775992,0.07909262718311348,0.0934038715212021,0.19643447131090652
829,1456703956798997,0.056827873525549126,0.0706364305202948,0.18119870061564466
830,1456703956820358,0.04498474035455326,0.055197849844450836,0.16153210412088517
831,1456703956836662,0.040189314471195246,0.0488389680426842,0.13926625076260646
832,1456703956859014,0.038674900597104336,0.05043294814297901,0.11657635089753607
833,1456703956880014,0.03769989114080092,0.05669334931500622,0.09584506519961847
834,1456703956896015,0.03598543177760751,0.06354756149947645,0.07943146364158772
835,1456703956919016,0.03341266322083909,0.06759748845410364,0.06922513415499584
836,1456703956940536,0.030433626167540962,0.06710551806701048,0.06604430997956942
837,1456703956956046,0.027558169537169226,0.06220823709073493,0.06918009570671177
838,1456703956979048,0.02507616554312525,0.054416518058895316,0.0764475837531406
839,1456703957000316,0.023024917530862908,0.0457314213486256,0.0848520077795325
840,1456703957016276,0.02134115030029076,0.037796841221158325,0.09159201553742184
841,1456703957039533,0.020075513077641192,0.03142023199992754,0.09492105393119271
842,1456703957060581,0.019498183317917965,0.026583509224764924,0.09450799445370225
843,1456703957076527,0.019983016627682777,0.02283337012849175,0.09123919642478606
844,1456703957106284,0.021731863758691194,0.019784750324966127,0.08665552126614609
845,1456703957120621,0.02454247479877387,0.01745742389570675,0.08230118839621393
846,1456703957136286,0.027800254250981673,0.016288055361824056,0.07920312417778669
847,1456703957159309,0.030713142475862387,0.016845918183528565,0.07758539696388081
848,1456703957180325,0.03264648040666769,0.01943186753624075,0.0768308690842256
849,1456703957196313,0.0333644052622121,0.023784837466086405,0.07567425123648698
850,1456703957219312,0.03305977128058209,0.029047926109283917,0.07262241842928628
851,1456703957240699,0.03217750524413327,0.03400798586633075,0.06655661864080845
852,1456703957256137,0.031119736726628495,0.03749266095049035,0.0573304123611126
853,1456703957278137,0.029955530405700082,0.03874315062411362,0.04605076554017457
854,1456703957300180,0.028280418725109606,0.03760168216616189,0.03479954778244636
855,1456703957316174,0.02535442516964692,0.034447556158584317,0.02584100284458436
856,1456703957338356,0.020516981414496167,0.029941433105912487,0.020670033895068045
857,1456703957360395,0.013667907356887075,0.02473094332845768,0.0193581261012741
858,1456703957376580,0.005497510210544289,0.019276328958609742,0.02049495257001115
