,timestamp,x,y,z
0,1456703940183118,0.016294845239979077,0.011177321272717654,0.014108767818625651
1,1456703940199117,0.02989643654739705,0.05569067884583456,0.06175096814388087
2,1456703940221663,0.04215759676181227,0.09376837281062464,0.10079941294378861
3,1456703940245138,0.05160054600696661,0.12057237668903785,0.12524999501653947
4,1456703940260138,0.056745444605492405,0.13368932580234674,0.13336354971238795
5,1456703940281140,0.0566130563364611,0.1333616938504381,0.12739567210721242
6,1456703940306173,0.05138808958656334,0.12220206995977026,0.11223953874706741
7,1456703940359613,0.04281314383452063,0.10457439118625078,0.0938285052315751
8,1456703940360368,0.033922619336167525,0.08565151660693557,0.07769577665300775
9,1456703940368561,0.02808979798658105,0.07016288604034936,0.06775831694074197
10,1456703940383399,0.027801585199758574,0.06111300444958995,0.06553212280115128
11,1456703940402364,0.033753046260182884,0.05900519603841777,0.07016502035344824
12,1456703940425885,0.044661668631223325,0.062040168495810705,0.07942549461460903
13,1456703940440425,0.05782091605784141,0.06731117356631397,0.09118476808822208
14,1456703940486604,0.07010458759355817,0.07241359903973939,0.10446399577687816
15,1456703940489394,0.07902659028168806,0.07655179124541873,0.11928906565665187
16,1456703940506463,0.08349568610870378,0.08050422977478598,0.13544563739106844
17,1456703940522135,0.08399750520629441,0.08556780160068692,0.15115001930828545
18,1456703940544407,0.08213713295736412,0.09224405222502918,0.1628641566137998
19,1456703940566408,0.07980394939220666,0.0994916214908899,0.16674744165190156
20,1456703940582411,0.07845811143904768,0.10496357298552508,0.16105368686772692
21,1456703940604653,0.0789323668009868,0.1061611495059274,0.14797526855346774
22,1456703940626917,0.08173146542987261,0.10201648533986091,0.13358639765991934
23,1456703940641459,0.08741764357702707,0.0940796568076729,0.1255808001369925
24,1456703940664664,0.09662618357191023,0.08650377665450432,0.12977977248182135
25,1456703940687636,0.10959893815023852,0.08466616044169958,0.14714691661549578
26,1456703940701427,0.12555855312020311,0.0931479129843617,0.1728997310573135
27,1456703940724958,0.14243221554453517,0.11410401199326652,0.1983323162500647
28,1456703940746958,0.1572419398775172,0.14656342270318412,0.2145850196923072
29,1456703940762155,0.16702578331549958,0.18655245172978066,0.21649251404778205
30,1456703940784124,0.16978890284690948,0.22778226340557067,0.20451276730007384
31,1456703940807128,0.16506586228498465,0.2628566598930338,0.18383965686048429
32,1456703940821906,0.15415297651431747,0.2849747163319571,0.16151758321656373
33,1456703940843190,0.140407496913523,0.289769730745887,0.14348039906724225
34,1456703940867190,0.12971841428189876,0.276630714288813,0.13313964249747362
35,1456703940881200,0.13049670159941618,0.2489192649607553,0.131880730407032
36,1456703940903193,0.15214058776551445,0.2128787723435594,0.14067598895723746
37,1456703940926705,0.20156178358465918,0.175581630903194,0.1615311361951964
38,1456703940941205,0.27870770329675826,0.14279228537644947,0.1975190536728121
39,1456703940963206,0.37317720857995224,0.11778430997069858,0.25076082868559885
40,1456703940986207,0.46429845666732084,0.10166097698188795,0.3190936036544913
41,1456703941002209,0.5260146199992102,0.0948346679300923,0.3936647412671325
42,1456703941023959,0.5356838593404484,0.09862492426799341,0.4598146095161425
43,1456703941046220,0.4835679103853645,0.11580731289121705,0.5017280434364941
44,1456703941061220,0.37894347997743905,0.14941079180536912,0.508796026844312
45,1456703941083221,0.2499676010112961,0.20003053111393154,0.4805256685194779
46,1456703941106222,0.13686312484842114,0.26301842748101395,0.42787313524805165
47,1456703941122729,0.08043758390253668,0.32741132861300876,0.3707763808178509
48,1456703941143235,0.10946782222688681,0.37787678559931454,0.3327724983306891
49,1456703941166236,0.23073335507132667,0.399474422492858,0.33382212240293935
50,1456703941182237,0.4247744056549893,0.38338404458901815,0.383013499633686
51,1456703941203238,0.6492233648074501,0.3309798231602729,0.4738334498333634
52,1456703941226745,0.8497840878949224,0.25435113180017643,0.5846538496162963
53,1456703941242251,0.9764537963405232,0.173058297740105,0.6850575347165087
54,1456703941263252,1.0,0.10844115603576159,0.7459053192266994
55,1456703941286254,0.9224901332586233,0.07753733630137066,0.7495437406213816
56,1456703941302254,0.7771288654919922,0.0885923682349035,0.696615582422527
57,1456703941323762,0.616687038893744,0.1394358545007142,0.6068381288567734
58,1456703941346268,0.4946221092907657,0.21899462303276732,0.5127391947101949
59,1456703941362269,0.44618667006338225,0.31133141096558253,0.44792680960026243
60,1456703941383269,0.47685464787702675,0.4009015151766753,0.4342313921728126
61,1456703941406472,0.5623254654665599,0.47701772316043756,0.4732248547714833
62,1456703941423067,0.6596263321502804,0.5353517894977857,0.5459404965165641
63,1456703941443380,0.7243608460845441,0.5758049098865052,0.6207112754504571
64,1456703941466186,0.7267305794897774,0.5987585216293239,0.6652763673973628
65,1456703941482182,0.6599501719315022,0.6029719462065201,0.6579425647412951
66,1456703941503183,0.5389474463602192,0.5866937367271795,0.5938804115152742
67,1456703941526934,0.39206439052804926,0.5506145938904979,0.4851184207521868
68,1456703941542397,0.25055661898270065,0.4998998313424052,0.35514221006040414
69,1456703941565400,0.13968179545507056,0.44352948634228756,0.23069203403656294
70,1456703941586737,0.0733276606385636,0.3912725005539898,0.13398596941575777
71,1456703941602402,0.05284523000146578,0.35016669823227703,0.07784947561563386
72,1456703941624002,0.06963320705227646,0.32253384069109303,0.06454519664586801
73,1456703941646024,0.1098709702464249,0.3064451766395651,0.08756834713845263
74,1456703941663025,0.15931369592827083,0.297959338378202,0.13503270665959038
75,1456703941684185,0.20661913918955266,0.29355316188273356,0.19334040758185816
76,1456703941707186,0.2446936659705986,0.2915906780834913,0.2500966006853352
77,1456703941722552,0.2702712242420952,0.2926462052521598,0.29561803371565737
78,1456703941743064,0.28233428988266057,0.2988125146142722,0.3230863229195462
79,1456703941766063,0.28043221135632646,0.3119430712797997,0.3281633738198562
80,1456703941788063,0.2642189576195112,0.3312454462207019,0.3090493773875049
81,1456703941803064,0.23481132996505685,0.35172915635684554,0.26730947646089326
82,1456703941827013,0.19688760146319595,0.365116467666809,0.20891109875369793
83,1456703941848474,0.15929897693584588,0.3632500129361264,0.1444775277499502
84,1456703941863475,0.13277834552283285,0.3423100558452312,0.0879378029714785
85,1456703941886753,0.12559801720474284,0.30577285484380445,0.053389850551919124
86,1456703941908477,0.1397148259217121,0.26458742195683965,0.05088202477012043
87,1456703941923488,0.1696789298518042,0.23382953470627243,0.08257418487242534
88,1456703941946493,0.20485807809434345,0.22649286227550638,0.14093857859266154
89,1456703941968499,0.2337538799834478,0.24701717289714928,0.2101886572732482
90,1456703941985496,0.24831290689672836,0.28808263198675615,0.27108751258451924
91,1456703942006532,0.2463625888045029,0.3328406317889334,0.3078040646707984
92,1456703942028953,0.2313986519397084,0.36178117725626935,0.3140359812472515
93,1456703942043901,0.21029098582763167,0.36083193663617713,0.2953074226468209
94,1456703942067120,0.1902580909009964,0.32671359770610503,0.26598304992520627
95,1456703942089091,0.17639098839973663,0.2673940464903753,0.24237272392166334
96,1456703942105906,0.17041629641030123,0.19834072545285245,0.23538799384925943
97,1456703942127003,0.17075234634543504,0.13697898162678168,0.24620829659189067
98,1456703942148213,0.17361688854428206,0.09747271337800169,0.26666652153546067
99,1456703942165211,0.17500059003977547,0.08686534119363494,0.2838379931526948
100,1456703942186481,0.17314030627929838,0.10312825973161703,0.2865173820243688
101,1456703942208500,0.1703743984607244,0.1357232620719961,0.27042698036492185
102,1456703942226137,0.1728233102011572,0.1690302348234149,0.23974280009820836
103,1456703942246803,0.1873629313483538,0.18796158515001551,0.20469852891070886
104,1456703942268803,0.2173717028908814,0.1837527702244006,0.17704821429110582
105,1456703942285803,0.2598597266865703,0.15738105900891255,0.16562919147877564
106,1456703942306810,0.3057913944631711,0.1190517556102239,0.17346391097969208
107,1456703942328860,0.3434805662695121,0.08418240529577967,0.19690376368742524
108,1456703942345865,0.36327526992227266,0.06788553224749584,0.22680513953542816
109,1456703942366867,0.3612037023964415,0.08014571111432103,0.25146756596346515
110,1456703942388868,0.34000571890709597,0.12303475945920171,0.2606547634909449
111,1456703942405870,0.30753098225244524,0.19036616871847942,0.24940499111267292
112,1456703942426820,0.2737129434483346,0.26962647965982384,0.22006703923751372
113,1456703942448586,0.24741356509633758,0.345598498739083,0.1815971736706767
114,1456703942465586,0.23387012038330895,0.4045552781520458,0.14636512549969163
115,1456703942486863,0.23326159716816544,0.43758566370480195,0.1257754599954131
116,1456703942508802,0.24100281279618196,0.44205774328228975,0.12637950682527033
117,1456703942525848,0.2499353191390004,0.42122585929199957,0.1477908689555115
118,1456703942546805,0.25353695400144105,0.3826429021460281,0.18294096229004428
119,1456703942569030,0.24855275887603612,0.3360524476312279,0.22045512575845597
120,1456703942586030,0.23576413843764754,0.29132759264355573,0.24841788871271128
121,1456703942607059,0.21870353338008391,0.2569313181180253,0.2584141222811088
122,1456703942629215,0.20125496630687087,0.23893478654582986,0.24839486996458437
123,1456703942645693,0.1856112964251185,0.24010703422780874,0.22298605185612963
124,1456703942674733,0.17168811223816863,0.2587691003254355,0.19085252588608878
125,1456703942688667,0.15812499499325552,0.28802531345223675,0.16040644935011125
126,1456703942705928,0.14409835962567016,0.3166262658643872,0.13627303792184497
127,1456703942726728,0.13073480678204025,0.3321289787982764,0.11842412159294331
128,1456703942747950,0.12108349209368978,0.32545248926475767,0.10404684200610731
129,1456703942772043,0.11843744143360699,0.2946462762298539,0.09047357310551442
130,1456703942787042,0.12395477724409003,0.24575762619169209,0.07716808362339685
131,1456703942809038,0.1351818671380864,0.19019747303523574,0.06586941875684629
132,1456703942825932,0.1465966072250672,0.14007389692934386,0.05936563992645202
133,1456703942847103,0.1519871312793607,0.1041139246301635,0.059944117820688494
134,1456703942869043,0.14733862555422983,0.08607836153942874,0.06833668893516255
135,1456703942885894,0.1326717563096743,0.08561117661871821,0.08350476096162303
136,1456703942906896,0.1120022214587905,0.09993254978677002,0.10317624742648869
137,1456703942928913,0.09168094116109322,0.12482322182521952,0.12467003969083701
138,1456703942945921,0.07804045436786015,0.15463446102695153,0.145412159631788
139,1456703942965927,0.07523112270638126,0.18229133034772424,0.16292220471735058
140,1456703942989027,0.08381156092460312,0.20036384070868501,0.174698951462757
141,1456703943012004,0.10048787925150418,0.2032346539498408,0.17863950306925191
142,1456703943027623,0.11922600465344946,0.1891768931460295,0.1740316956689124
143,1456703943048136,0.1334704047640732,0.16095036605004057,0.16235325522967173
144,1456703943071353,0.13855137000334736,0.12455106847654632,0.14703499887479174
145,1456703943096172,0.13314027788488528,0.08699348594580869,0.13215911158382002
146,1456703943108336,0.11914505896122854,0.0543803531435297,0.12090441045415302
147,1456703943131931,0.10035809352641475,0.03097840551102166,0.11460836035574543
148,1456703943147728,0.08078145065385108,0.01927927846034689,0.11274797153000175
149,1456703943168735,0.06348143263255461,0.020583646096087097,0.11360092646425068
150,1456703943191736,0.050254648137279236,0.03550912691673531,0.11514236825954939
151,1456703943207731,0.04184872424952424,0.06390130957575865,0.11580338024216269
152,1456703943230742,0.0383385841402039,0.10400512624403468,0.11493965637613283
153,1456703943251970,0.03943567945730702,0.15141262161038135,0.11308577806936511
154,1456703943267756,0.04470839787363192,0.19881369113872396,0.11211522622933483
155,1456703943288986,0.05374297130283564,0.23736904474495032,0.11518276535680876
156,1456703943312147,0.06620649443421525,0.25952056105048965,0.1260162179893397
157,1456703943328154,0.08173670197394849,0.26190581186438083,0.14727618675758622
158,1456703943349369,0.09966610071571544,0.24670147889623364,0.1784963239620095
159,1456703943371371,0.11871507742281823,0.2205871602645395,0.21490095080517801
160,1456703943387371,0.13684705575929645,0.19194469826858926,0.24828372839706014
161,1456703943408377,0.15144221107745612,0.1678063153826152,0.2699864701778466
162,1456703943431893,0.15983327221017588,0.15196835469496842,0.27462083451546676
163,1456703943447401,0.1600844549628707,0.14484414165831352,0.26254844198729277
164,1456703943468619,0.1517390559366466,0.14458127371516413,0.2397415905078537
165,1456703943491665,0.13621938298215,0.14840461658355777,0.21505857966490072
166,1456703943509405,0.11670532184838579,0.15347434219962297,0.19629090735099397
167,1456703943529414,0.09752234331117529,0.15730700662165858,0.18692217029851074
168,1456703943551758,0.08316827714511293,0.15811777727763973,0.18515966767221737
169,1456703943568759,0.07717531520822987,0.1551419126685703,0.18560648547840836
170,1456703943589026,0.08114917011569865,0.148739391482962,0.18257482439775558
171,1456703943611992,0.09438168699312009,0.14027831019156628,0.17335209520323622
172,1456703943628055,0.11421285951043356,0.13205802534779199,0.16002688961395284
173,1456703943650124,0.1369525160919491,0.12743863089199636,0.1493196841672636
174,1456703943671018,0.1589331908155392,0.13097650006188885,0.15059384628919634
175,1456703943687019,0.17729432506472192,0.14803665583842845,0.17256307489178907
176,1456703943709045,0.19034182679501974,0.18330765534629506,0.21942925812828615
177,1456703943731560,0.19759073678386385,0.2381421942417995,0.28767648469209134
178,1456703943747030,0.1996703943525133,0.3077320496455261,0.36525115006289305
179,1456703943768037,0.19809994153955432,0.3801687587946445,0.43444177353954033
180,1456703943792050,0.1947647469669848,0.4392902842698928,0.4780138483910385
181,1456703943809050,0.19111089609811188,0.47122294529613606,0.4860232510969518
182,1456703943829254,0.18758141680088314,0.4716818933891736,0.45985630742643924
183,1456703943851599,0.18398136014346747,0.44974391084049764,0.4112771047344045
184,1456703943874264,0.18076865302694003,0.42544390359704154,0.35699898624812243
185,1456703943888552,0.18021841793791346,0.42200267659474655,0.31181252783206603
186,1456703943911602,0.18615011083117317,0.45618783277995095,0.28387082572593153
187,1456703943934079,0.2019400353761724,0.5308704754318475,0.27400525984695184
188,1456703943949294,0.22801624515253338,0.6327131741423226,0.2782514217370513
189,1456703943971337,0.26057422886639253,0.7360125887993603,0.2909913083082149
190,1456703943988321,0.29239028760157454,0.811476130285289,0.30645727985227555
191,1456703944010298,0.31520961812085563,0.8365880688923204,0.3184708095505106
192,1456703944031819,0.32241911065445633,0.8032546077815177,0.320213767989442
193,1456703944048326,0.3108542160168692,0.7195896588223495,0.30562476957689794
194,1456703944070327,0.2812287155063983,0.6055774390861628,0.27208221161693574
195,1456703944091368,0.23752002813626016,0.4851174278917767,0.22255689990064761
196,1456703944108328,0.1861963517060769,0.3781053708000051,0.16568781631910118
197,1456703944132377,0.13575027577087603,0.2955186982791555,0.11363538477985524
198,1456703944151388,0.09600873702755007,0.23870906459594876,0.07878510910474475
199,1456703944168354,0.07646135380101615,0.20228883779892637,0.07068436496267613
200,1456703944190355,0.0837049282620827,0.17879593177777608,0.09407516674102548
201,1456703944211362,0.1189906231199205,0.16292754890385006,0.14811789122272884
202,1456703944228408,0.17701995587933705,0.1536543415279484,0.22649116314351347
203,1456703944250636,0.2467413831982231,0.1537735405293263,0.3181145181636057
204,1456703944271412,0.31418745081818816,0.16764260556051652,0.40849285614144365
205,1456703944293392,0.36639101284569503,0.19824640101194513,0.4819330511883404
206,1456703944310430,0.3946719326811578,0.2445382570353332,0.5248461409566634
207,1456703944341409,0.39598288625258155,0.29986778198165726,0.5295386399708282
208,1456703944353411,0.3723675422511244,0.3524779560390682,0.4967348335805303
209,1456703944370411,0.32951066363216636,0.3886920887613087,0.4351338172191869
210,1456703944391661,0.27511596687633927,0.39785810672143945,0.35810240960716183
211,1456703944413413,0.21728863325619693,0.3765044776034128,0.27938829491622447
212,1456703944430615,0.1630945350182934,0.32940249817683664,0.20984674848617524
213,1456703944451560,0.11765867173195499,0.2673040079943713,0.15605336536058992
214,1456703944473512,0.08391596826733554,0.20297220737217977,0.12057609969798662
215,1456703944490539,0.06270241440321192,0.14738018915215215,0.10306627344623252
216,1456703944511651,0.05290073971854929,0.10721313069191236,0.10124493082885525
217,1456703944534115,0.051735616592787775,0.08408925565436622,0.11137459218143769
218,1456703944549956,0.05545233019199998,0.07538601794173809,0.12854931831499047
219,1456703944572064,0.06035256343765291,0.07608740079888628,0.14738579679011476
220,1456703944592958,0.06386077309961294,0.08080977452532308,0.16322980492992978
221,1456703944618090,0.06522609794272262,0.08528839792382917,0.1733421493468525
222,1456703944631472,0.06557767440473751,0.08701712041054244,0.17733345669753917
223,1456703944654091,0.06723015698426034,0.08518443174111259,0.1765326237242184
224,1456703944669987,0.07239265137992047,0.08029283814940232,0.17269191668419587
225,1456703944692091,0.08176605368868543,0.07375311380918682,0.16692465445919136
226,1456703944713983,0.09372542298384294,0.06746703195153154,0.15959179838079024
227,1456703944730510,0.10462298729178171,0.06329089287075616,0.15108127520091535
228,1456703944751018,0.1102002246858825,0.0624255953244049,0.14272031512324412
229,1456703944774016,0.10746796517871582,0.06500046113846303,0.13701228563167467
230,1456703944791018,0.09612685876625937,0.07015496381974032,0.13695279682940026
231,1456703944812020,0.07887147665640258,0.076678698114861,0.1448413466107538
232,1456703944834035,0.06052448317609908,0.0838590439471598,0.16124103827468292
233,1456703944850050,0.04642722833588215,0.09192852410510613,0.18443796108951388
234,1456703944872050,0.040667146004958056,0.10170487722546351,0.21037423316258633
235,1456703944894051,0.0447019641053287,0.11361955284066588,0.23308129679640396
236,1456703944911052,0.05688069368591143,0.12688882634251974,0.2459289234171799
237,1456703944933407,0.0731492638165736,0.13961859313009883,0.24384804960426015
238,1456703944954041,0.0887395548678627,0.1500173897980237,0.22588664568028932
239,1456703944969921,0.1000807994991309,0.15799208154878278,0.1966766694705365
240,1456703944993079,0.10600748460642677,0.16590759835826152,0.1655093885914006
241,1456703945012920,0.10777434685281527,0.17768379395680442,0.14293028317747639
242,1456703945038715,0.1080666439709184,0.19647875001334836,0.1362591676948205
243,1456703945053507,0.10959101977386244,0.22221577243076465,0.1461531239641274
244,1456703945073794,0.11381919914864357,0.25043492414975904,0.1659459708704274
245,1456703945090508,0.12025199522357564,0.2732518656343225,0.18436208924057323
246,1456703945113511,0.12638763193778912,0.2821203781937268,0.19066399485249705
247,1456703945133817,0.12847748871534198,0.27126612012842644,0.17984718645312375
248,1456703945150330,0.12305177854570633,0.24030705199907568,0.1551344201930425
249,1456703945174330,0.10897948936650415,0.1947985701703066,0.12642003824092293
250,1456703945193548,0.08949386437184503,0.14442380161074692,0.1056652874953396
251,1456703945210332,0.07327491501418237,0.09986448035916047,0.10179074500561806
252,1456703945238770,0.07350316092705632,0.06998074511136994,0.11745337287406013
253,1456703945253561,0.10411695731138522,0.060388814664193484,0.14878997236004782
254,1456703945270561,0.1736668128260942,0.07355089928040383,0.18778112990312198
255,1456703945293562,0.27893563941362987,0.10985553629929411,0.22597934409114126
256,1456703945317563,0.40178810864949516,0.16894282821599008,0.258041988386739
257,1456703945330857,0.5122288626988033,0.25043303908597764,0.28357527765584317
258,1456703945353873,0.5779993582611896,0.3533129976341451,0.30625044314237915
259,1456703945373875,0.5773261991491705,0.47399077550216767,0.33036822913773
260,1456703945391116,0.5088775044192456,0.6043185914518062,0.35676073410066395
261,1456703945412876,0.39362584533710104,0.7314177981709806,0.38081562583686956
262,1456703945433818,0.2672963201079896,0.8400062315314925,0.39435764229151543
263,1456703945450107,0.16704132372835362,0.9161402633141827,0.39053353368304256
264,1456703945473108,0.118682574740741,0.9505061881461904,0.36855664764252877
265,1456703945493327,0.12977532634930247,0.9399529454959727,0.33501863301750545
266,1456703945516326,0.19010742017925478,0.887127293734575,0.3007441336562471
267,1456703945533995,0.27767199952456745,0.799179516757851,0.27524172678015735
268,1456703945553640,0.36664237292450186,0.6868535086414909,0.26244719171143055
269,1456703945576648,0.43458505335408815,0.564273152477517,0.2604715285137429
270,1456703945593354,0.4675877513956741,0.4481710558636102,0.2651606730875326
271,1456703945613356,0.46276723369146056,0.35515690949411677,0.2745361067397773
272,1456703945636881,0.42789063262849764,0.2974409944497684,0.2906433712042516
273,1456703945653390,0.3783202908163425,0.2792177680060886,0.317433047061162
274,1456703945673605,0.33208860124427697,0.29573223034958224,0.3563259881344811
275,1456703945696391,0.30428581578320235,0.33534366445262354,0.40263336420053614
276,1456703945720392,0.302252334873531,0.3834079882282625,0.445217822697888
277,1456703945733981,0.3232282592636981,0.42634434994166814,0.4698425167130828
278,1456703945757191,0.3555884347470798,0.4544795107908992,0.464810564703031
279,1456703945773191,0.3834617402810154,0.46289713116659353,0.4262660565081635
280,1456703945797194,0.3929369053538212,0.4506109765982378,0.36039136298883534
281,1456703945817194,0.3770572293562571,0.41930962909631486,0.28115048273519005
282,1456703945833488,0.3373310177020834,0.3726770175565113,0.20470720069131806
283,1456703945855282,0.2815803669770255,0.31613837823453667,0.14358491810367516
284,1456703945876586,0.2200469505107853,0.25624289842471376,0.10352268021365409
285,1456703945893284,0.16202963681535457,0.1993945459003229,0.08392269091393688
286,1456703945915286,0.11408968645039293,0.15046551545963435,0.0805191747955801
287,1456703945937079,0.07958035308632794,0.11204167554953254,0.08808962919131812
288,1456703945953613,0.058873665271644844,0.08459291601189346,0.10184789373435371
289,1456703945975631,0.049911406277494914,0.06724693719142005,0.11756581824600057
290,1456703945996598,0.049016171589880204,0.05855982255166473,0.13133604406609992
291,1456703946013599,0.05194797583948941,0.05688231083038801,0.1397772967574664
292,1456703946035665,0.05500755691432967,0.06037916310667681,0.14079020348306456
293,1456703946057009,0.05583770800532098,0.06703550161719718,0.13440092746722804
294,1456703946072927,0.05368189550072884,0.07487844103808118,0.12310635956932126
295,1456703946094928,0.049152996947482465,0.08235462946484834,0.1113315333719792
296,1456703946115935,0.04377371727220984,0.0886393488936333,0.10398050877702478
297,1456703946133486,0.039498862567044775,0.0937053349484835,0.10453378069516849
298,1456703946154958,0.03823048855482822,0.09812453481200031,0.11349464728035065
299,1456703946175959,0.041273533877068294,0.10266922301005703,0.12794039227601037
300,1456703946193979,0.048838892692550685,0.1078160950445169,0.14247263888223846
301,1456703946214963,0.05984621106964004,0.11330695396588449,0.15123687543640618
302,1456703946236979,0.07218504539387863,0.11796807409758249,0.15021743667814563
303,1456703946252991,0.08334374600643832,0.11996087946126795,0.1389146162924899
304,1456703946274990,0.09116534909917148,0.11749845494720002,0.12075787510083129
305,1456703946295991,0.0945394707396978,0.10985620915327131,0.10206153503596815
306,1456703946312993,0.09393477259216954,0.09832129772312266,0.08987763619289424
307,1456703946335534,0.09163766380512553,0.08663564841035148,0.08961090631935606
308,1456703946356446,0.09145686694095073,0.08053017282705181,0.1034435608982446
309,1456703946373220,0.0977441193193132,0.08621233003838404,0.13019958018779954
310,1456703946395221,0.11394961867387735,0.10817099029872722,0.16639759603929102
311,1456703946424436,0.14126405046159538,0.147125037337501,0.20751960101452635
312,1456703946433704,0.17783656933621492,0.19898708803010365,0.24857643898478762
313,1456703946455630,0.2186950397668291,0.25528445264744376,0.28390309110950723
314,1456703946476601,0.2563203526853186,0.3049303354777961,0.30706366356628195
315,1456703946493597,0.28205823979192235,0.33694571072712454,0.31188332646993594
316,1456703946515634,0.28867911974182753,0.3436434575204525,0.29472826065066815
317,1456703946536674,0.2737482400214818,0.3235510157002198,0.25699773288098915
318,1456703946553669,0.24232119092806584,0.28296632795315396,0.206341358293909
319,1456703946575642,0.2070553914013281,0.2351026974666746,0.15560805504574265
320,1456703946596645,0.18485437121938644,0.19675740637512582,0.11957292523252683
321,1456703946613680,0.19096623358492876,0.18379750874966894,0.11056798771643357
322,1456703946635944,0.23282083881913407,0.2072537662804465,0.13475982460168023
323,1456703946656807,0.3062472752748534,0.2710373438156939,0.19057520553973817
324,1456703946673804,0.39613420835874286,0.3712278040992872,0.2697470896969351
325,1456703946703804,0.4820597505243088,0.4965615542819775,0.36020415298853337
326,1456703946716836,0.5469134913605843,0.6300890651441781,0.449219306768911
327,1456703946733612,0.5841427294966539,0.7521595751575993,0.5253529637254579
328,1456703946755656,0.5992279500506075,0.8444481896369076,0.5788899868814489
329,1456703946776883,0.6043887033005607,0.8940531480147222,0.6019628741996241
330,1456703946799769,0.6100424690553239,0.8964696066299616,0.589903157705137
331,1456703946815661,0.6184272120791053,0.8565392338696741,0.5438334381846627
332,1456703946838606,0.6228423781433241,0.7869216095130258,0.4724851114469994
333,1456703946859897,0.6121873966236782,0.704250385767041,0.3909927311835327
334,1456703946877653,0.5775819941746858,0.6240407252605026,0.3164496929256156
335,1456703946898619,0.5173168721737698,0.5562431931775885,0.2623719400948579
336,1456703946919817,0.43800941721688325,0.5033493623057926,0.23486069945544563
337,1456703946935855,0.35211466989099577,0.4617259354111951,0.2320230941407856
338,1456703946957958,0.27345829137000593,0.42507746650563805,0.2463418041072275
339,1456703946978991,0.212955526466648,0.3879866151356417,0.2683944273127505
340,1456703946995797,0.17630150743616355,0.3479836529248819,0.29012699660572977
341,1456703947019931,0.16409240062139763,0.30589298252453284,0.30657475159977693
342,1456703947039512,0.1732107258198269,0.2650681950893093,0.3159173764300118
343,1456703947055027,0.19787424369385412,0.23001002282031685,0.31854422208008193
344,1456703947078029,0.22995506326331086,0.20451735137624824,0.31601409899260585
345,1456703947099070,0.2595561821298656,0.189810151774145,0.31031946556593265
346,1456703947115030,0.27683580156866655,0.1835735838399585,0.3032242019700423
347,1456703947138552,0.2748137133788414,0.18071170278781834,0.295412275560352
348,1456703947159065,0.2517233676983739,0.1757107000076385,0.28579182604454617
349,1456703947175067,0.2115038401132702,0.16547897193163533,0.27172125659952856
350,1456703947198068,0.16216825747621538,0.15102618424315317,0.25048950595904185
351,1456703947219069,0.11296069225301071,0.13691702905477685,0.22131918351853708
352,1456703947235487,0.07159672647860184,0.12888857129758854,0.1864436551464404
353,1456703947259972,0.042571514020980215,0.13116042574192374,0.15032405272271215
354,1456703947279183,0.026925571813017617,0.14481034515080105,0.11754512399094416
355,1456703947295974,0.023200128629669508,0.16753679766773205,0.0909398303374293
356,1456703947318975,0.028838280839502836,0.19436114033649624,0.07108989634779696
357,1456703947339797,0.0412830096513758,0.2188343205494651,0.057155700602914625
358,1456703947355289,0.05842140988873573,0.234616483505172,0.0482020084590235
359,1456703947384625,0.07843906496333543,0.23727913066354225,0.04416913541086181
360,1456703947399625,0.09935611325673449,0.2258349659179023,0.04600690575911253
361,1456703947415293,0.1186010318109658,0.20332132559304125,0.05491535987859218
362,1456703947438814,0.13300367355507053,0.1760494675887553,0.07104679396746996
363,1456703947459362,0.13943228582932657,0.1516606741118974,0.09235294236933453
364,1456703947475626,0.1358986002881065,0.13658741815963713,0.11434956181036915
365,1456703947498542,0.12255452261333757,0.13381448101679522,0.1312366023330509
366,1456703947519620,0.10197658533984702,0.1418502914072653,0.13806527381769854
367,1456703947535809,0.07853947339544785,0.15538014664851843,0.1328931998626896
368,1456703947558829,0.05716627051226921,0.1673119847227297,0.11771628918637125
369,1456703947579565,0.04198224362259638,0.17129301721871887,0.09762690189035449
370,1456703947595571,0.03537347768096566,0.16368017628979964,0.07868740578266285
371,1456703947618568,0.0377522444072215,0.14442382444835675,0.06571094268754642
372,1456703947639675,0.04800799662384113,0.11694873411595703,0.06108259818427445
373,1456703947669962,0.06430062895800069,0.08738076331340827,0.06503856655780196
374,1456703947678663,0.08471596353819703,0.06331421643950384,0.07692546019490154
375,1456703947699665,0.10743440409105336,0.052113165649285725,0.09644460437476328
376,1456703947715924,0.13040954033099467,0.05882281864192071,0.12406727882814791
377,1456703947738654,0.15096429583187979,0.08415558989716015,0.160499737565505
378,1456703947760977,0.16591712721281882,0.12341863280078712,0.20571456202977176
379,1456703947781776,0.1725846788881394,0.16723419376845106,0.2582304079735669
380,1456703947798765,0.17033922201543597,0.20425038282724534,0.3150372866545756
381,1456703947820766,0.1618252203941468,0.22501599588091892,0.37209124056229237
382,1456703947835562,0.15298000525164784,0.22544468667392953,0.4249624433151696
383,1456703947858579,0.15165391578389945,0.20836225990708848,0.4693166579716331
384,1456703947880581,0.1652807157738414,0.18251385172089069,0.5013682328408509
385,1456703947901954,0.19818475772478686,0.15955871940882843,0.518671015064788
386,1456703947918582,0.24901351419394835,0.15035268978828784,0.5212098311771645
387,1456703947941040,0.30914636798189415,0.16193734782193653,0.5121523458440046
388,1456703947957986,0.3635579861095765,0.19623043054585007,0.4975752026252639
389,1456703947977896,0.39525260434460524,0.25066722476233233,0.48514843447124784
390,1456703947999897,0.39243609853735806,0.3202472444120365,0.482529195954539
391,1456703948021938,0.35533822235846807,0.399856276377468,0.49618013879102285
392,1456703948038891,0.29894122372559695,0.4855149357265011,0.5302888382730133
393,1456703948059934,0.24942753794609304,0.573629156220445,0.5847395804647262
394,1456703948088940,0.23508915747139247,0.6586836074353013,0.6522514551441905
395,1456703948097936,0.2752614847365348,0.7314749851076354,0.7170827093469744
396,1456703948120936,0.372040019946708,0.7802368162607942,0.7582586934182598
397,1456703948141893,0.5084522533129646,0.7949866811728065,0.7575839981873778
398,1456703948158887,0.6540695895624382,0.7725766304700225,0.7086449698395062
399,1456703948180871,0.7758404912007943,0.718885109198269,0.6213555029271522
400,1456703948201903,0.8492384780430937,0.6464993508626217,0.5191779689080936
401,1456703948225886,0.8644298452751293,0.5694819835549207,0.430592525650115
402,1456703948240853,0.8253926481120337,0.49859583810641245,0.37883467737208043
403,1456703948261915,0.7446072107976015,0.4394458019695055,0.37361374361331556
404,1456703948278913,0.6377216213872877,0.393643099228356,0.4074669702385274
405,1456703948300911,0.5204051243711596,0.36129828870659225,0.4583582104993569
406,1456703948321911,0.4068572020425058,0.34274035452159335,0.49808472541100407
407,1456703948338770,0.308879720132526,0.3382264325095546,0.5032283211974823
408,1456703948360014,0.23511793713533258,0.3461286697379938,0.46383928283265996
409,1456703948381016,0.19034484548525965,0.36151154095828975,0.38614843634305934
410,1456703948398017,0.1746364385601957,0.3767718749455449,0.28863033254706005
411,1456703948420017,0.182686011386227,0.3842443997064715,0.1938319743626892
412,1456703948441859,0.2041015562076724,0.3791050014200494,0.1199721340617986
413,1456703948457861,0.22553387128084623,0.3608532713507138,0.07584525684893237
414,1456703948479862,0.2345299658980025,0.33279241606652127,0.06048827053668276
415,1456703948502968,0.22364785432125942,0.30008865817880837,0.06652402586464494
416,1456703948517967,0.1927922596124064,0.26750140107463083,0.08451631898465217
417,1456703948540659,0.148620307422967,0.23777327602505097,0.1059885738113694
418,1456703948569941,0.10152701791724925,0.2112536384294552,0.12446039350210919
419,1456703948578676,0.06179727177109282,0.18676936927470492,0.13537918191955267
420,1456703948600677,0.03646525475139275,0.16313824337157842,0.13609387428290087
421,1456703948621996,0.027757228615568483,0.1403529827360449,0.12623890930561696
422,1456703948638484,0.033283211056417114,0.11973529379275884,0.10801661254665172
423,1456703948659994,0.04757080590721178,0.10313958757567332,0.08568892496746194
424,1456703948680996,0.064196010686925,0.09192614123642295,0.06420296781351621
425,1456703948697999,0.07775877702360036,0.08643649798985374,0.047630498470572415
426,1456703948719997,0.08519102860447514,0.08618879178177506,0.0382566848068063
427,1456703948744025,0.08617222261838024,0.09045424516896984,0.0366257977871809
428,1456703948758069,0.08266597753810725,0.09868950760201635,0.04219410397887719
429,1456703948780033,0.07781329891259495,0.11050643789588947,0.05396719188748359
430,1456703948803034,0.07462940775783389,0.12519929972486402,0.07068622782131521
431,1456703948818035,0.07502558444131698,0.14110231776830698,0.09056043451222982
432,1456703948841936,0.07947255548636985,0.1551721447295614,0.11094005143857984
433,1456703948863208,0.0872241429079001,0.1631890068082588,0.12842321072726146
434,1456703948878207,0.09675156439544273,0.1608077311909657,0.13957566326826268
435,1456703948900208,0.10611614680119508,0.14530845869120618,0.14194748146710204
436,1456703948923210,0.1132863281077759,0.11738794239292762,0.13488308837924978
437,1456703948939298,0.11655459492927794,0.08205025134078675,0.11991981876127497
438,1456703948960094,0.11508301049804376,0.04794509842536385,0.10092038638021461
439,1456703948983094,0.10937590455579539,0.025216428759533296,0.0839928395302689
440,1456703948999096,0.10143111945230734,0.02251228534217302,0.07684724419364003
441,1456703949020096,0.09449512816989206,0.04399471590091659,0.08710567962662345
442,1456703949058317,0.09247136029213361,0.0871999485404889,0.1195719485578607
443,1456703949061348,0.09895439244434909,0.14262499830317235,0.17335851687373718
444,1456703949080312,0.11586381778643087,0.19574584257591457,0.24042319141620708
445,1456703949103313,0.1420208122075854,0.23144839384462051,0.30683331062432617
446,1456703949119314,0.17249142884519825,0.2396184522599758,0.35682866480904935
447,1456703949140326,0.19950639048911697,0.2196604534418715,0.3782306896014876
448,1456703949163335,0.21500403715748925,0.18194745076520008,0.3670398886155079
449,1456703949184624,0.2138161506993322,0.145586130499532,0.32957517848167406
450,1456703949201337,0.19607810497814387,0.13326437896531027,0.2815729754696119
451,1456703949222704,0.16792740204071488,0.16455124545963806,0.24442761274676164
452,1456703949244354,0.14040196166905414,0.249195441237728,0.23915593156695306
453,1456703949259397,0.12694378830104608,0.38229399785454304,0.27923313257762367
454,1456703949282684,0.13995770757593284,0.5434570229124428,0.3643388214156002
455,1456703949304615,0.1868647002154325,0.7013609181164718,0.4777162659638295
456,1456703949319613,0.2663839087913183,0.8228666693023386,0.5894376179736919
457,1456703949342409,0.36637316752424626,0.8833069656531349,0.6657997652954708
458,1456703949364438,0.46496336420283424,0.8736948295793286,0.6817289633621728
459,1456703949381421,0.5361304949879094,0.8021702851012578,0.6304442606423326
460,1456703949402456,0.5587504674686739,0.6896561448102728,0.525330598219155
461,1456703949424421,0.5253617947430561,0.5618993016748977,0.39335410448859803
462,1456703949439429,0.44576089447120026,0.44122991273596124,0.2642356937982263
463,1456703949462439,0.3430899151336774,0.34130704544581225,0.16117255314073653
464,1456703949484441,0.2446205724809598,0.2666578658955331,0.09656747866607925
465,1456703949499447,0.17208039413807474,0.21626312973274303,0.0726116953412308
466,1456703949522725,0.135551551603986,0.18815573808238503,0.08433039285450657
467,1456703949544652,0.13250434598109045,0.18175372716519247,0.12260648956664034
468,1456703949559666,0.15131772398275023,0.19683613192230154,0.17607543654885455
469,1456703949582746,0.17714902965567342,0.2308743625356602,0.2323740600678887
470,1456703949604678,0.1975042791852497,0.2774463918857376,0.27978302456224124
471,1456703949619683,0.20562819363010965,0.3270956195528465,0.3094935569075941
472,1456703949642480,0.2012642330372423,0.3698773537072795,0.3175637220199696
473,1456703949665685,0.18931755308234754,0.39787994741516025,0.30542088203934503
474,1456703949678875,0.17719681588174716,0.40655892527679466,0.27867892489953777
475,1456703949702956,0.17164178546484907,0.3947809125674802,0.24505240654660557
476,1456703949724892,0.17596867648424447,0.3641770728270063,0.21233198889731866
477,1456703949739692,0.18866790786543647,0.3185668394021431,0.18683213538809293
478,1456703949762705,0.20394974346467554,0.2637989623463705,0.1722608761304428
479,1456703949784707,0.21415006403935283,0.20752412580779028,0.16905414876478528
480,1456703949799922,0.21301827432964657,0.15800015555695512,0.17444330832935082
481,1456703949822949,0.19828267754802775,0.12180824398792538,0.1833644504245093
482,1456703949844720,0.17221688191046633,0.10166545771542858,0.18993489380930886
483,1456703949860941,0.14020105258462892,0.0958204102156903,0.1890670490193599
484,1456703949883910,0.10840674856398541,0.09940897481687522,0.17789366952973
485,1456703949904905,0.08182697841638853,0.10678081964826004,0.15672843570800807
486,1456703949920902,0.06322896545882829,0.11339522674729258,0.12920938360614675
487,1456703949942987,0.053022250830438725,0.11654298223136549,0.10137484347850018
488,1456703949964266,0.04978082039661035,0.11514299196329038,0.07985069466276638
489,1456703949981266,0.05109665295561184,0.10935996092132093,0.06975772418781893
490,1456703950002603,0.05446975844049763,0.10047476010792307,0.07303140154881425
491,1456703950032338,0.05801092696867699,0.09076607584633081,0.08765302706679698
492,1456703950041300,0.06080373366488785,0.08292952803346954,0.10806251545227338
493,1456703950062273,0.06284666410563311,0.079014683729258,0.12678402011420895
494,1456703950084191,0.0646205581841453,0.07944247731222112,0.13691201136204328
495,1456703950100972,0.06650165864514801,0.08274874647270583,0.13461048821216287
496,1456703950122184,0.068352750998519,0.08625319544188577,0.12053216129916527
497,1456703950144488,0.06953345922601402,0.08729281443936417,0.09946088318218771
498,1456703950168990,0.06931183416328732,0.08436948391276931,0.07839522068457414
499,1456703950181990,0.0674327402143688,0.07767378083623691,0.06404648692492972
500,1456703950204205,0.0645138966709391,0.06884641891737958,0.06079700764729046
501,1456703950219992,0.061979126679606936,0.06025532769386001,0.06969309447442433
502,1456703950242503,0.061437315890459,0.05423515672567043,0.08850722739512647
503,1456703950282008,0.06377992126191495,0.05259345142105149,0.11258596810797127
504,1456703950287239,0.06855164341490892,0.05641105532265996,0.1361292989812778
505,1456703950309223,0.07404681467188498,0.06597226847825217,0.153608615694251
506,1456703950324224,0.07813742758243147,0.08064551960643813,0.16106966235622852
507,1456703950347023,0.07939445998115928,0.09868169017527839,0.1570582258527314
508,1456703950362024,0.0779142557590322,0.11710907863472911,0.14299300291836511
509,1456703950385026,0.07544408231212682,0.13200557931462492,0.12298539343045449
510,1456703950407330,0.07475741865735736,0.13928277756591104,0.10311346102245025
511,1456703950423028,0.07855685438310041,0.13581744054162964,0.09002530547492289
512,1456703950444539,0.08836035821105594,0.12058271266176962,0.08892908778971653
513,1456703950467851,0.10383135594571301,0.0954677480143047,0.10158039504208148
514,1456703950482837,0.12284667511010937,0.06557797994542486,0.1252069719569131
515,1456703950504854,0.14228163593480497,0.03887235487637638,0.15306133740223246
516,1456703950527833,0.15914926768114962,0.025066036729349414,0.17669958776428957
517,1456703950542852,0.17156501036648314,0.03382216382846219,0.18938468537976563
518,1456703950564575,0.17915265997652988,0.07237130086804844,0.18933295640671735
519,1456703950587861,0.18291043935350818,0.14295059935330223,0.18126268951948774
520,1456703950602865,0.18494310568688804,0.24090242938095194,0.17525258334901844
521,1456703950624897,0.18843872324743807,0.35460211369143946,0.1830427058897652
522,1456703950647595,0.19774698655450157,0.4680227057746603,0.21295457524517764
523,1456703950662596,0.21790999151685292,0.5654415253710328,0.2652376505594922
524,1456703950684897,0.2530787342313252,0.6362354768718445,0.3299361949682275
525,1456703950707863,0.3039610317665361,0.6772869821084714,0.3890565822732241
526,1456703950722861,0.3654281746326468,0.691896242274492,0.4231852384403316
527,1456703950744609,0.4261007938938171,0.6862639472281846,0.41992282641628903
528,1456703950767618,0.47132139298780656,0.6659156358065396,0.3796230385894387
529,1456703950784619,0.48891747745848896,0.6340892848294031,0.3151590571552201
530,1456703950804620,0.4746733897846745,0.5924916132553169,0.2461587376040302
531,1456703950834604,0.43395919047932224,0.5431891467972303,0.19117263730738304
532,1456703950844889,0.37859888957367677,0.4900138710419813,0.16146239564640288
533,1456703950863897,0.32143896977065245,0.438717053659263,0.15836078291319194
534,1456703950887899,0.2719384142230142,0.3959493546396861,0.1743286139930709
535,1456703950903898,0.23433132278471808,0.36733664808768063,0.1967203369241376
536,1456703950924900,0.20806249068374275,0.35509077119687404,0.21273862144610867
537,1456703950946913,0.1896636371259157,0.35618869798236247,0.21389407311971773
538,1456703950963923,0.1752220603627636,0.3625168482723309,0.19849156860175954
539,1456703950985925,0.16237960203987212,0.36361431747798156,0.1713825906990443
540,1456703951007924,0.15091444816134836,0.3509133522261631,0.14133137898382692
541,1456703951023925,0.14182981786889493,0.3211178200833501,0.11725754205306023
542,1456703951044437,0.13583629913110196,0.2768986810445959,0.1048767723771513
543,1456703951066947,0.13231778874485364,0.22495301134643847,0.10496197065391819
544,1456703951083946,0.1293274065939024,0.17295982212847003,0.11382742276434475
545,1456703951104948,0.12445561598088158,0.12710626077658216,0.1257539405007291
546,1456703951127949,0.11599660226504417,0.09103572019761855,0.13611651617127501
547,1456703951144491,0.10381917854438004,0.06608079850035177,0.14350237347482958
548,1456703951163974,0.08957091149867388,0.052036589388891726,0.14964632211744122
549,1456703951186970,0.0761150828047603,0.04774223015554253,0.15740795800764973
550,1456703951203971,0.0663922869035886,0.051216125332538394,0.16829307638145796
551,1456703951223977,0.062191498403800866,0.05958006958133296,0.18118048213763163
552,1456703951246988,0.06341819488489016,0.06919636374170841,0.1928938707939417
553,1456703951269003,0.06821309030753923,0.07632763528715643,0.1999414871420236
554,1456703951284194,0.07382113065436076,0.07829278773432682,0.20012100014591347
555,1456703951307192,0.07771430733697504,0.07464683547012813,0.19308602208084483
556,1456703951324003,0.07838126299602141,0.06764417867562904,0.1799284180553633
557,1456703951344741,0.07549054472300872,0.061475935464135344,0.16249447879525225
558,1456703951367029,0.06960072813072307,0.06047441100347769,0.14300091182556007
559,1456703951384024,0.06183108879163306,0.06716367602171221,0.12386264109868796
560,1456703951405361,0.053732615997842834,0.08115523759713726,0.10730624725841897
561,1456703951427329,0.04723972360675793,0.0993474843769084,0.09468532369283221
562,1456703951443539,0.044413860088728024,0.11712901899848954,0.08594450295268104
563,1456703951464049,0.04685118849236976,0.1298781399476546,0.07974004552209697
564,1456703951488048,0.05494320752649843,0.13420223030163822,0.07429807799897394
565,1456703951509330,0.06739659704624588,0.12877572905856205,0.06865333109751058
566,1456703951524336,0.08140401646019153,0.11485057785555783,0.0637475894704046
567,1456703951547065,0.09356860011730705,0.09639831685370241,0.0628966281251223
568,1456703951569073,0.10119415804982183,0.07967597571317571,0.07127520019858814
569,1456703951584293,0.10322914202415161,0.07206051040582648,0.09438240890801143
570,1456703951607306,0.10043097826740707,0.08025573483194452,0.13588514019094167
571,1456703951629288,0.09502755769559702,0.10827812194757921,0.1955506487503115
572,1456703951644830,0.090482942742349,0.15583046094776115,0.26802061328650645
573,1456703951667106,0.09145719462823514,0.21767030408820565,0.3430377624150609
574,1456703951698107,0.10326795507001528,0.28432580448500555,0.4074850514347003
575,1456703951704388,0.13014365674817477,0.3440934307280863,0.44914407240937987
576,1456703951727438,0.17257598759817858,0.38590375032662594,0.4613875869985939
577,1456703951743628,0.2252720307488848,0.40250037822161294,0.4472543817863375
578,1456703951766138,0.2774657622115353,0.3932706241845024,0.42084430106963555
579,1456703951787474,0.3163302225176917,0.3658136172798153,0.40426985621056377
580,1456703951809427,0.3324723231506624,0.33518887831721395,0.4200283061105464
581,1456703951832853,0.3250125603547115,0.32029715005167786,0.48127234387820017
582,1456703951847156,0.30356155254633194,0.3381013540904336,0.5844472701327581
583,1456703951869165,0.2857346544835599,0.3975839792185918,0.7082589995268164
584,1456703951886399,0.29080402897062396,0.49554427371412574,0.8197660855990807
585,1456703951907427,0.3316163663203103,0.6157704318627479,0.88492085570556
586,1456703951930168,0.4077779519013715,0.7324475762282792,0.8797302885772481
587,1456703951946180,0.5033372342400373,0.8175580498288614,0.7989833885723265
588,1456703951967190,0.5911567243967898,0.8501487496186143,0.6599789287062052
589,1456703951989196,0.6433608474000068,0.8239247126943005,0.4989385795995837
590,1456703952006191,0.6436176984002236,0.7500500960932723,0.35988150657317847
591,1456703952027490,0.5949797645950266,0.6538447460110852,0.2795425611088195
592,1456703952050218,0.5187333894906069,0.5661894232644119,0.2744403844009464
593,1456703952066212,0.44464418887136925,0.5126059603312748,0.33540031621454175
594,1456703952087569,0.3976886651274536,0.5044594287624764,0.4316147303013816
595,1456703952111226,0.3877386124575607,0.5359939592923625,0.5225460270652315
596,1456703952126215,0.406648210958272,0.5878525816102759,0.5728318926487269
597,1456703952147227,0.43355540908271356,0.6346889290039779,0.5640047722905964
598,1456703952170237,0.44548842123965726,0.6535930619681031,0.4984168815298462
599,1456703952186467,0.4279459373492192,0.6308386043574741,0.39478298074430096
600,1456703952207449,0.380392745959015,0.5652909641186757,0.27875881428094446
601,1456703952229238,0.31465627102738153,0.4675560425625641,0.1734943555303311
602,1456703952254466,0.24810585032764584,0.35540039014997554,0.09376262709634675
603,1456703952267474,0.1957796312253378,0.24764517848533185,0.04469271240341928
604,1456703952290734,0.16521970646735312,0.15910968211135287,0.024049923322972056
605,1456703952306739,0.15551398478333714,0.09800123147766082,0.026010139064190654
606,1456703952327740,0.1596901877320619,0.06573742327212269,0.04436942517933921
607,1456703952349490,0.168504885045252,0.058480155266081836,0.07393004252174887
608,1456703952366493,0.17392254843954055,0.06944322363772548,0.11008993708353938
609,1456703952387833,0.17134027608276725,0.09103240423187904,0.1478023147365541
610,1456703952410760,0.1601969374720745,0.11622033044066576,0.18135800916100867
611,1456703952426494,0.14307564561704564,0.13914942325136534,0.20563606852835054
612,1456703952447507,0.12394454555948611,0.15539270680224596,0.21812817997419615
613,1456703952470516,0.1064619898032362,0.16235153045491163,0.22022279435143685
614,1456703952486516,0.09298502345717527,0.15988823895302784,0.21661865014221568
615,1456703952507834,0.08435683037618864,0.15065005969715337,0.2129753307231589
616,1456703952531519,0.08020249934282848,0.13927649736561712,0.21297462386048552
617,1456703952545528,0.07942217615874736,0.13035901593846036,0.21623578616765737
618,1456703952567538,0.08065400451531338,0.12615367565635932,0.21817638221426128
619,1456703952590868,0.08259917687355525,0.12546135882252904,0.2122254464647572
620,1456703952606540,0.08422501974137832,0.12436527036488336,0.19375778922057188
621,1456703952627832,0.08490596712242877,0.11842521937445248,0.16398447490852608
622,1456703952649560,0.08452370945805063,0.10536661051290945,0.13165669303557015
623,1456703952666561,0.0835128675427276,0.08731552408383426,0.11138530785149875
624,1456703952689562,0.08282869729154964,0.07173936737982757,0.11906496639787872
625,1456703952710820,0.0838032567074834,0.07034098308012779,0.16613656400889334
626,1456703952726564,0.08787163002561733,0.09560984888560838,0.25465742630471977
627,1456703952749581,0.09623738061622125,0.15573117822526916,0.3747093998832746
628,1456703952770582,0.1096587473529916,0.2496290612624499,0.5050988552313473
629,1456703952786583,0.12847535549426198,0.36439106546811534,0.6176976770508784
630,1456703952809585,0.15267798175196812,0.4767966116682698,0.6848455918670023
631,1456703952830587,0.181621749057988,0.5591817553037723,0.6879414791338887
632,1456703952846595,0.2133363834395441,0.5880033657610473,0.6244346703461162
633,1456703952868827,0.24405201325719306,0.5522386020972387,0.5107072098745786
634,1456703952890604,0.26875902564209586,0.4587713777672375,0.3795688729818697
635,1456703952912604,0.2830028023039846,0.33278549316085276,0.27243624658397303
636,1456703952936588,0.2851540902951542,0.21238221979827926,0.22766514063873672
637,1456703952950839,0.277873434743786,0.13828403476882495,0.2682097810599276
638,1456703952973841,0.26785479042799437,0.14143277146549812,0.3929607206812909
639,1456703952987841,0.26399892346284276,0.2325053143913809,0.5753561064312954
640,1456703953010843,0.2750231087876385,0.3971101597123211,0.7701086191370194
641,1456703953032851,0.3072251300671022,0.5989902882061889,0.9258593284496218
642,1456703953048862,0.362176027872947,0.7912475713583573,1.0
643,1456703953069868,0.4343256508257978,0.9322957191962129,0.9717820358130395
644,1456703953092862,0.5102503232067772,1.0,0.849952367102351
645,1456703953108863,0.5720438473752879,0.9972105068439153,0.6715266593109814
646,1456703953129867,0.6048570999973907,0.9462759690907918,0.49053696561208815
647,1456703953151890,0.6045243780721995,0.8763146870446189,0.3599585057468157
648,1456703953168884,0.5799524803393274,0.8104011166392144,0.3137547293532479
649,1456703953190885,0.5483191196150522,0.7588600745199469,0.35605723130412276
650,1456703953219889,0.5260481632680424,0.720979384471302,0.46111980690032567
651,1456703953228889,0.5207824492175342,0.6924504416802738,0.583456758266931
652,1456703953249948,0.5283883999300857,0.6721708521001524,0.6742538480415172
653,1456703953271906,0.5362395417104214,0.6628633749990949,0.6980673449456148
654,1456703953288907,0.5308974771556663,0.665561653896737,0.643610070453497
655,1456703953310168,0.50577785199287,0.6737009887620623,0.5248392329387891
656,1456703953332129,0.4642301410657153,0.6729083086490607,0.3728807480178386
657,1456703953349145,0.41639693132341254,0.6474118170911817,0.2232292861038333
658,1456703953370147,0.3722994096741854,0.588484933954158,0.10401871356305568
659,1456703953392409,0.3358685656972737,0.49924688571384496,0.029545522053410316
660,1456703953409147,0.3036262749938278,0.3932844905867152,0.0
661,1456703953430150,0.2683056249877148,0.28858374376990287,0.005549864617849872
662,1456703953452585,0.22444340641409727,0.20055235875023716,0.03189594128574304
663,1456703953468733,0.17218606351438348,0.1376644346034845,0.06510357012709368
664,1456703953489729,0.11740167684309198,0.10101199172169334,0.0947907846042294
665,1456703953512607,0.06879824855464864,0.08655403012024249,0.11561716591878667
666,1456703953528729,0.03414798271971356,0.08788450708953556,0.12725260601615673
667,1456703953551523,0.01748407734792936,0.0981091985580806,0.1330331067540602
668,1456703953572524,0.01810329909983935,0.11076127450271124,0.13776755326955123
669,1456703953588525,0.03127160875866182,0.12042988856876095,0.14552507963093933
670,1456703953610757,0.0500381769017071,0.12359024640255663,0.15819628386542264
671,1456703953640535,0.06742657920243537,0.11944496423375486,0.17508153083347133
672,1456703953648536,0.07832533703055308,0.1101127238685281,0.193234849161617
673,1456703953671546,0.08059640755253025,0.09968498229963024,0.2082344774910258
674,1456703953692755,0.07522374791089013,0.09242585424509416,0.21533711509426748
675,1456703953708725,0.06561510741914148,0.09106292224912534,0.21109790198629397
676,1456703953731714,0.05635639969255669,0.09603580158271463,0.19514000621402006
677,1456703953752775,0.05179440360253226,0.10581973612349957,0.17111725154097995
678,1456703953768776,0.054808374402229146,0.11780655343488912,0.14587872606969096
679,1456703953791777,0.06603984716595714,0.1292058162911762,0.126845481405704
680,1456703953812779,0.0837099963601448,0.1377051725725899,0.11889734272465775
681,1456703953828779,0.10402182211790427,0.1417378109160106,0.12245898434189804
682,1456703953850715,0.12207920870454321,0.14028968440597958,0.13369500126294218
683,1456703953872750,0.13321035039798176,0.13255263827903122,0.1465291930986823
684,1456703953888721,0.1344395891046373,0.11807864077308804,0.15539251259823325
685,1456703953918720,0.12566135057408026,0.09780690294495922,0.157451291675094
686,1456703953931722,0.11004996570153383,0.07547715737487519,0.153503125323323
687,1456703953948231,0.09344000021718737,0.05828969428623539,0.14747815292908667
688,1456703953970740,0.0827070445493699,0.05583194062290996,0.14508912701258064
689,1456703953991748,0.08355681487137209,0.07711596102723425,0.1523009838931492
690,1456703954007743,0.09856267103736505,0.12656279716973848,0.17401728834837493
691,1456703954030757,0.12642523502061495,0.20061191221258665,0.21299944079654212
692,1456703954053762,0.16288831682223173,0.2869796490893606,0.26877680329083364
693,1456703954067816,0.20272620785535808,0.3678275291258691,0.33643056216187534
694,1456703954090765,0.24148634137628736,0.426077369941619,0.40584782637430356
695,1456703954112771,0.27591361528978625,0.4519495920824539,0.4628756201133493
696,1456703954128765,0.30310644662565817,0.44627110283873533,0.49350041561515756
697,1456703954151070,0.3195739583146813,0.41887552857193466,0.4900994969332942
698,1456703954172075,0.3215267283971867,0.3833196470971665,0.45641962134032654
699,1456703954195335,0.3066946206470332,0.35119671592132373,0.407755436706957
700,1456703954211072,0.2764945363265308,0.32923355914408203,0.3654715358207082
701,1456703954232134,0.23682195210865736,0.32016693055170714,0.3484465135146295
702,1456703954255130,0.196750557495189,0.32562038254092435,0.3656993610159618
703,1456703954271094,0.16605302421672924,0.34795225725366613,0.413590268667852
704,1456703954292319,0.15315926485704925,0.38924570831966393,0.47839725941655703
705,1456703954315289,0.16436897005382314,0.448158900744022,0.5422271122289518
706,1456703954331347,0.20358837848243483,0.5172173537958201,0.5887257884834651
707,1456703954360455,0.27107617021825675,0.5831081822824274,0.6061259710213949
708,1456703954375161,0.3607682297705937,0.6308106957645677,0.5881418241003147
709,1456703954391140,0.4580094846384827,0.6498689000167448,0.5349944427426595
710,1456703954412422,0.5406882329616599,0.6391656589415067,0.45521905521532435
711,1456703954435476,0.5853096295790862,0.6069837283358653,0.3660257297466476
712,1456703954450987,0.5762383634050734,0.5662678629858332,0.28977207107711966
713,1456703954473987,0.5136023343503283,0.5282876773845315,0.2469272497005829
714,1456703954495251,0.4154143157331691,0.4984495249067372,0.24858995797985275
715,1456703954510989,0.3124656781275132,0.475909667366892,0.29190293783185467
716,1456703954531996,0.2381141162212487,0.4561798483758832,0.36023563809391046
717,1456703954555041,0.21685764664542126,0.43465384352161246,0.42830804833907626
718,1456703954571037,0.25553760873624093,0.4090274235660762,0.4708884903509109
719,1456703954594004,0.3402781526752032,0.37958154173545944,0.4720909839644193
720,1456703954615005,0.44087419267216404,0.3478194296289865,0.4312520269512703
721,1456703954631200,0.5216705280785189,0.31509924603910283,0.3622792850432028
722,1456703954654226,0.5547500742548627,0.2826532740776168,0.2865899237776124
723,1456703954675509,0.5296749420647728,0.2528496407112612,0.2234205097596476
724,1456703954691504,0.45568656823435305,0.2301990472389021,0.18263537192432985
725,1456703954714231,0.3562193826452432,0.22065545221428742,0.1631690201124532
726,1456703954735786,0.25906770113975314,0.22905949180314145,0.15660438232195387
727,1456703954751542,0.18665568954474132,0.25604319734503844,0.1528583055742819
728,1456703954774542,0.14980217519181202,0.2962363863363793,0.14489867296438427
729,1456703954795791,0.14640433264038333,0.33891392567402917,0.13100426442847501
730,1456703954811544,0.16454143796148762,0.3710631447981305,0.1145527739390866
731,1456703954834303,0.18808889283301378,0.3819176276764073,0.10194360433335861
732,1456703954855546,0.2024293258433051,0.36723325151621866,0.0995075416868843
733,1456703954871215,0.19845272318057905,0.3311994805205968,0.11054906584612675
734,1456703954894181,0.1742219060855976,0.284742294504487,0.13375023181624357
735,1456703954915487,0.1345121468158522,0.2409780851635784,0.16364680558170033
736,1456703954931184,0.08866478787066175,0.21012886225053704,0.19285173982124915
737,1456703954954222,0.04735901658339538,0.19614316298176848,0.21476053273782242
738,1456703954975223,0.019260732155024794,0.1960912413751628,0.22534160974750725
739,1456703954991485,0.008633471282891285,0.20219885875223054,0.22344658174848495
740,1456703955014227,0.014581027427565285,0.20553727855566242,0.21016335532861072
741,1456703955035748,0.03191876749306288,0.19981293572742584,0.1881067044881566
742,1456703955051029,0.05317054395559173,0.1836113229060465,0.16098321372870814
743,1456703955074030,0.07096785184895499,0.16023418954427826,0.13307126431680796
744,1456703955095292,0.08010167698518747,0.13561966146011298,0.10826271226018912
745,1456703955111030,0.07865885158403112,0.1156920981884597,0.0889165332175365
746,1456703955134678,0.06808409485613812,0.10428173860416608,0.07518693646441268
747,1456703955155559,0.052429447656083275,0.1020847382816694,0.06529716405293692
748,1456703955171503,0.0372023401438164,0.10677484929420958,0.05672504347020903
749,1456703955194534,0.02810601797266879,0.11425634946685916,0.04783063110010405
750,1456703955215308,0.029804215570822936,0.1207022026602532,0.03921013665474321
751,1456703955231507,0.04479210703549339,0.12451686813297967,0.034082491968317176
752,1456703955253713,0.07253353110100311,0.12723684839301969,0.037383544414796945
753,1456703955275713,0.10913396626249836,0.13288592160423685,0.05380909664993963
754,1456703955291714,0.14781067833215328,0.14606773368409556,0.08551500855346818
755,1456703955314717,0.1802595873903344,0.16957412907696193,0.1303758170895668
756,1456703955335736,0.1987806749367435,0.2023909407908863,0.18158410393482516
757,1456703955351245,0.19870301103420726,0.2389122407330909,0.228957639747268
758,1456703955373284,0.1802926434693436,0.26998923266270186,0.26172875101944487
759,1456703955395614,0.14931931139280347,0.28594242927598595,0.27202617125074113
760,1456703955411248,0.11608232653972021,0.28079054620559357,0.2578864367905094
761,1456703955433250,0.0934346088731238,0.2560133523079737,0.22456418609987885
762,1456703955455772,0.09434564069956977,0.221779339799387,0.18335956625542063
763,1456703955470739,0.1288759026067799,0.19433604960093281,0.14827284156285125
764,1456703955492558,0.20027374400306772,0.19016406727072588,0.13201364576685493
765,1456703955515703,0.30108938527093115,0.2194912014512352,0.14319418191012664
766,1456703955537547,0.4118641211002686,0.2824476022795883,0.18547373878356443
767,1456703955552791,0.5051114216241739,0.3699216994862152,0.25782512098953536
768,1456703955575790,0.554798823298464,0.4686037540860612,0.35443870696588947
769,1456703955597792,0.5474624339655039,0.5671453148675509,0.46385336916748626
770,1456703955612792,0.4886984955368681,0.6596121666527787,0.5688023184254885
771,1456703955637607,0.4009328924701441,0.7444148545662294,0.6489105986094619
772,1456703955656912,0.3138956762500042,0.8201939696120416,0.6866340554709952
773,1456703955672907,0.2533996742518878,0.8819481158402885,0.6739774173611731
774,1456703955695909,0.23370634366799797,0.9200078667773601,0.616186644474805
775,1456703955717125,0.25535185356855783,0.9225007603452273,0.5301094040782115
776,1456703955732912,0.3072218240958034,0.8801527468453941,0.4380620631433902
777,1456703955756733,0.3707792512925916,0.791223658238441,0.3603157995498907
778,1456703955777734,0.42514308005100115,0.664149147463134,0.30926750843033673
779,1456703955792735,0.45250641903629674,0.5162281926695584,0.2868427307654218
780,1456703955815737,0.4430263878791276,0.36870272507718227,0.28537924942619286
781,1456703955837700,0.39741747643304093,0.24084668836709128,0.2914950361463892
782,1456703955860042,0.3258209926749676,0.14604357948837565,0.29158271377080364
783,1456703955876036,0.24355680324360665,0.09080296151979751,0.276776859382766
784,1456703955897039,0.16614374415648073,0.07552483672439633,0.24546508159969785
785,1456703955913040,0.10570433474522471,0.09552402343688918,0.2027580204280053
786,1456703955936656,0.06927740843213584,0.14183093432290214,0.15775112999526217
787,1456703955957345,0.058493702012432945,0.20210032633239355,0.12000992648924956
788,1456703955973345,0.07006054781534461,0.26208954319803873,0.09654369793188017
789,1456703955996347,0.0968824156728799,0.3079530979305853,0.09009058549744754
790,1456703956017355,0.12981847318849235,0.32922995937159255,0.09905301190812267
791,1456703956033349,0.15987270267154002,0.3217729615254299,0.11885951295013134
792,1456703956056173,0.18019776033316293,0.28926916299644306,0.14396420133908708
793,1456703956077475,0.1871801692708534,0.24222317372639418,0.1694740452596007
794,1456703956093176,0.18039934350561113,0.19455878702581572,0.191784183582918
795,1456703956116176,0.16195873442516062,0.15932751393754135,0.20834588651415467
796,1456703956139469,0.1357720031080283,0.1452616716500455,0.21717834385042
797,1456703956153477,0.10685019447152105,0.15510171574389842,0.21668818502543633
798,1456703956176648,0.0803221527475569,0.1856085812748472,0.2060374015456309
799,1456703956196479,0.06026360768274858,0.22865796999584642,0.18593028176795756
800,1456703956212606,0.048845311630896365,0.2729994918246206,0.15927738051391332
801,1456703956236223,0.046203476898237075,0.30670719226019916,0.1310194296490482
802,1456703956256741,0.05093662163702305,0.3202704488089024,0.10687014551424648
803,1456703956272734,0.06080017951869562,0.3095295506946457,0.09154237015058182
804,1456703956296737,0.07325691465720363,0.2771291411214177,0.08731018343659627
805,1456703956317736,0.0858649238591222,0.23161145055460794,0.0933697299373163
806,1456703956332738,0.0966816561015838,0.1843516903343969,0.1060100801333322
807,1456703956355674,0.10471682982331505,0.14549549220977848,0.11946639795241527
808,1456703956377544,0.11016475352600014,0.12057055778017144,0.127343692662822
809,1456703956392713,0.11410497729252496,0.1092846796640604,0.12446718244928076
810,1456703956416545,0.11771039547370862,0.10698296252040312,0.10885618486036766
811,1456703956437629,0.12140671936266982,0.10779031422484489,0.083248064536437
812,1456703956452847,0.12451434468469189,0.10764806856870231,0.055415959731394085
813,1456703956475850,0.12565888733465422,0.10582766567671888,0.03668180213382271
814,1456703956498850,0.12384029371279134,0.10460840295812798,0.038578554923915515
815,1456703956512851,0.11962842960074786,0.10773324505180852,0.06841829513014248
816,1456703956536361,0.11569285198104383,0.11853490617397688,0.12531680331491316
817,1456703956558870,0.11606917663476915,0.1383992379703676,0.19860698596800053
818,1456703956579870,0.12426867096550095,0.165873672720852,0.2700768537781131
819,1456703956595871,0.14112004618729068,0.19652830694338996,0.3199268974352937
820,1456703956618872,0.16350923063358225,0.22368304030139893,0.3343167760470829
821,1456703956632873,0.18481221928840616,0.24006024623120886,0.31111387250161754
822,1456703956656185,0.1971050837626538,0.24007616800327256,0.26103790964295276
823,1456703956679186,0.19441385823953705,0.22202034281103739,0.20363400895465308
824,1456703956693187,0.1755233046285003,0.18915714200867664,0.15997264242189269
825,1456703956716188,0.14478518544737376,0.1490358981507857,0.1452102316880192
826,1456703956739483,0.11039900493522878,0.11104743946348812,0.16375234689473683
827,1456703956760326,0.08112406544810483,0.08320241859500706,0.20838216870527632
828,1456703956775992,0.0631054141103559,0.06957339944509527,0.2632504232377629
829,1456703956798997,0.05810345881082501,0.06947492011678237,0.30958045771458037
830,1456703956820358,0.06353328709697165,0.0785717991250318,0.33230595209673625
831,1456703956836662,0.07396968458953866,0.09123494060296962,0.3254583426792696
832,1456703956859014,0.08335162076003048,0.10295132403313816,0.294187917916584
833,1456703956880014,0.08703652869272342,0.1116780465741073,0.25235752834530817
834,1456703956896015,0.08307489477619227,0.1177101834180107,0.21660339509766055
835,1456703956919016,0.07246162741017013,0.12246836608397198,0.19953871245566648
836,1456703956940536,0.058478759972061395,0.12705586545437647,0.20516859709868734
837,1456703956956046,0.04546073025228764,0.1313351174374681,0.2283065699325034
838,1456703956979048,0.03738912059960632,0.13387550543173424,0.25769823550797133
839,1456703957000316,0.03670371183239591,0.13270453459671194,0.28096696520710646
840,1456703957016276,0.04363976654421034,0.1264631862067354,0.28911921409060376
841,1456703957039533,0.05626548119273367,0.11536693736658522,0.2789730521481905
842,1456703957060581,0.07117037141072038,0.1014156692537861,0.25294368566807407
843,1456703957076527,0.08451550608310368,0.08766660673038854,0.21677572860340547
844,1456703957106284,0.09307959670491582,0.07693556746120526,0.17671076189842846
845,1456703957120621,0.09505942861217433,0.07065419955134436,0.13766890614490443
846,1456703957136286,0.09050750530548468,0.06852103454748465,0.10308172797605622
847,1456703957159309,0.0812850758989045,0.06910832203094963,0.07573684501354054
848,1456703957180325,0.07043175093508995,0.07101066571813786,0.058438925794867584
849,1456703957196313,0.061076291542357455,0.07376403592498428,0.05374209988760817
850,1456703957219312,0.055309579560451044,0.07787652353946309,0.06284416501303519
851,1456703957240699,0.05351102643567128,0.08390826551478381,0.0842816963826759
852,1456703957256137,0.05437030515218148,0.09124386277094051,0.11318647595690719
853,1456703957278137,0.055491868419260765,0.09747830977076588,0.14172786693630718
854,1456703957300180,0.05426332893569072,0.0989515203918228,0.16098459749369762
855,1456703957316174,0.04867357137668703,0.09220503416257295,0.16377559041037448
856,1456703957338356,0.0378897272234059,0.07557110545703201,0.1472586078433014
857,1456703957360395,0.022508827826919757,0.05009994509605991,0.11406040645428188
858,1456703957376580,0.004422748890930943,0.01945649365999812,0.07150541200698185
