,timestamp,x,y,z
0,1456704106043305,0.0054667710157483415,0.005073983588772687,0.021937407910563058
1,1456704106066306,0.030294619116698236,0.015833728500024413,0.018819320187374852
2,1456704106082315,0.052386560289492935,0.025576578625382627,0.016694210018063895
3,1456704106103318,0.06957088488093235,0.033358107463498224,0.016395538499702586
4,1456704106127529,0.08060902136470686,0.03848686903540326,0.018438385885607787
5,1456704106142326,0.08533434969111828,0.04075605499756561,0.022887813164885213
6,1456704106163322,0.08451649105895984,0.040607249756694136,0.029263826741293627
7,1456704106187338,0.07949956731591394,0.039047335484923285,0.0365312551710012
8,1456704106218355,0.07176534789501134,0.037284723843955495,0.04325203716550888
9,1456704106219350,0.06260119869208716,0.036272703546183505,0.04794179386996385
10,1456704106240353,0.052966081403720125,0.036414767580582416,0.04955244761691462
11,1456704106269352,0.04353822274886066,0.03754565573414741,0.0478709269607295
12,1456704106279367,0.03487669996265141,0.03912148277148223,0.04361584186787297
13,1456704106309583,0.027611819715155222,0.0404806130817225,0.038179658306688784
14,1456704106336584,0.02255277031028781,0.041056986046341046,0.03316615534683328
15,1456704106360586,0.020596475281931717,0.040474004016527405,0.029930205538643822
16,1456704106361749,0.022408094174803713,0.038514245526349314,0.029239179945462483
17,1456704106380593,0.028005362919370613,0.03504236786208318,0.03108961444350214
18,1456704106405775,0.036491134625087206,0.030002252634039224,0.03470809376610366
19,1456704106420773,0.046143094036539316,0.023567371034039702,0.03878804913411056
20,1456704106439826,0.05490679762885963,0.01640049292852451,0.04197662193646236
21,1456704106464769,0.061136065463533985,0.009846382473759454,0.04349662235567063
22,1456704106480644,0.06427647904863168,0.005847051464040456,0.04363524273971554
23,1456704106500856,0.0651674164942645,0.006478324743264038,0.04379388120312654
24,1456704106516857,0.0657683167630283,0.01319215101480399,0.04596047047544006
25,1456704106539859,0.06834157818768266,0.026017353359940817,0.051763548955711274
26,1456704106560859,0.07435745171718176,0.04307364637737604,0.061521447727263284
27,1456704106577386,0.08356628588165393,0.06074492574156456,0.07378102049573404
28,1456704106599894,0.09374536812705705,0.07466466531450665,0.08570108438642682
29,1456704106620117,0.10144596865232924,0.08127795670089473,0.09427435668867984
30,1456704106636894,0.10359591049081737,0.07933483030004689,0.09788691857561496
31,1456704106659896,0.09925501335500886,0.07055994143076796,0.09736574933306018
32,1456704106680626,0.09053975917117625,0.05912827718955487,0.09582521283638011
33,1456704106703263,0.08202102009645333,0.050220055736861495,0.09731091684582324
34,1456704106719975,0.07871439048458989,0.04831342944384378,0.10492504576121241
35,1456704106739977,0.0836354894026386,0.055790854344655486,0.11927160605855901
36,1456704106762979,0.09617584530996533,0.07219343989781309,0.13778043351217195
37,1456704106780501,0.11210264312419561,0.09435190885376733,0.15518553896046705
38,1456704106800294,0.1251701625300114,0.11749675678132113,0.1651841120399826
39,1456704106825008,0.1296576412353695,0.13703095734762652,0.16282454718003095
40,1456704106840009,0.12286093102475323,0.1501148712925094,0.1466160209503256
41,1456704106862011,0.10659833300772138,0.156165147330958,0.11930513361374051
42,1456704106883839,0.08704410188890965,0.15612142424051764,0.08694739412745581
43,1456704106899831,0.07272234526746303,0.1513192759793582,0.05680248845002101
44,1456704106920793,0.07125276225290526,0.14301522657648646,0.03505305190031451
45,1456704106943829,0.08610260113642859,0.13278061092229343,0.02521781034876392
46,1456704106959754,0.11473891016883209,0.12302268843669374,0.02765523833629023
47,1456704106982158,0.14907510062661986,0.11681343504474062,0.04005688356940414
48,1456704107003827,0.178209888189977,0.11693864781609802,0.05851702787232177
49,1456704107019824,0.19250593745119018,0.12472547938057317,0.0786953212716883
50,1456704107041675,0.1873608791395169,0.13924181106386885,0.09671547642524383
51,1456704107064671,0.16494357580185834,0.15718004037874472,0.10968125531522283
52,1456704107080192,0.1329906406218262,0.17354156042443802,0.1159114338937752
53,1456704107102209,0.10125292068341561,0.18305068112048162,0.11505979040975735
54,1456704107123215,0.07744705582646087,0.18187121462047975,0.10818711514449218
55,1456704107140212,0.06470024455696591,0.1689104516625909,0.09770131864985497
56,1456704107162213,0.061443767173344994,0.14614257969160654,0.08698012514753627
57,1456704107183228,0.06333444404066553,0.11790802527765117,0.0795583000319096
58,1456704107200234,0.06591978728398572,0.08962811522815724,0.07806471126174258
59,1456704107222235,0.06670073663364265,0.06651566873093338,0.08338796450061668
60,1456704107243236,0.06578236194673197,0.05266070536106338,0.094454422590237
61,1456704107260245,0.06508278843706528,0.050523302503729134,0.10858109597484158
62,1456704107282759,0.06675191488198293,0.06065945199832455,0.12211968445597211
63,1456704107303675,0.07174258142424761,0.08160150436829461,0.1312728491286027
64,1456704107320675,0.07924571825436448,0.11003921425311283,0.1331571172693012
65,1456704107342473,0.08710768602181612,0.14147868044822207,0.12696746872629944
66,1456704107363469,0.09280348284758903,0.17131966625409778,0.11464285965954862
67,1456704107380484,0.0944042672241211,0.19600966850264775,0.10036975308715176
68,1456704107402407,0.09122001743313965,0.2138257401505355,0.08887169937709712
69,1456704107423408,0.08404897877090683,0.22493178179498974,0.08325088532315107
70,1456704107440410,0.07499701306972345,0.23060843420256413,0.08349463561412596
71,1456704107462354,0.06682861758978864,0.2319484047992917,0.08645661527864644
72,1456704107483611,0.06202283452961418,0.22878005416418853,0.08745478099306606
73,1456704107507194,0.061977667207030546,0.2197989777488887,0.08289926252311473
74,1456704107522195,0.06675300377625239,0.20437451135739912,0.07280572381757455
75,1456704107543496,0.07533219826497334,0.1852006798782519,0.06193378172692805
76,1456704107560197,0.08606436668042182,0.16977263072167093,0.05877187074591759
77,1456704107582467,0.09708562391459938,0.16890843998872732,0.07250499071604936
78,1456704107603169,0.106857403438531,0.19244442742459686,0.10903850545236904
79,1456704107619941,0.11492508285004653,0.24432137562407613,0.16769822723368574
80,1456704107641941,0.12250259849382127,0.31972393168064805,0.24014110405254904
81,1456704107662943,0.13218389204374698,0.40551633794509157,0.3122421302253642
82,1456704107680449,0.14657524326262997,0.48344411342913346,0.36843957829425966
83,1456704107701965,0.1665821940181385,0.5348705419306204,0.3967406611813586
84,1456704107722972,0.1904524232551276,0.5460023894261976,0.39217407832776385
85,1456704107739967,0.2140724292346676,0.5124287999404815,0.3574588923210571
86,1456704107761970,0.23216830215630754,0.44113666345212516,0.30131392083026537
87,1456704107783671,0.23980586730810038,0.348378989132107,0.23567542596218363
88,1456704107800396,0.23384767832807438,0.2538141874626962,0.17275602293121764
89,1456704107824187,0.214145021535981,0.1737687760640272,0.12240027696225014
90,1456704107843487,0.1840086684905068,0.11693006559644957,0.09019458085931416
91,1456704107860190,0.14943984548836858,0.08389237857545966,0.0768062012271033
92,1456704107882507,0.11716145291100413,0.06964378568784853,0.07868955565748517
93,1456704107903697,0.09229319559492595,0.0670360984531613,0.08982448874207102
94,1456704107934762,0.07681095876068333,0.06963639801032875,0.10379353191505997
95,1456704107942471,0.06947266901388822,0.07323321382647319,0.11542282200564512
96,1456704107965472,0.06704693233037862,0.07599758601415059,0.1215581163136763
97,1456704107986499,0.06601740488643823,0.0777345857252729,0.12113731221109138
98,1456704108002691,0.0638752749075744,0.07882722831947737,0.11500566430219453
99,1456704108025691,0.05961899441402887,0.07939848255928975,0.10565704147288943
100,1456704108046511,0.0536489765458347,0.07899891698717247,0.09671501575760297
101,1456704108070511,0.0474117343679221,0.07687203516072291,0.09202419460199276
102,1456704108085763,0.04294003221045388,0.07259094475413357,0.09459657626824983
103,1456704108106841,0.042219942946873965,0.06665427626477304,0.10580876818652518
104,1456704108121842,0.04636912129053792,0.06061053843528864,0.12499959598459914
105,1456704108145844,0.054885847388639476,0.056541404958812984,0.14937222943885003
106,1456704108166105,0.06543483704629355,0.05614857009137578,0.1742159427057102
107,1456704108182563,0.07450968124172375,0.059947504782904955,0.19370422887297356
108,1456704108212069,0.07884030011987818,0.0669851620345684,0.20238912459778383
109,1456704108226103,0.07689091418641228,0.07517562848973494,0.19697139269712205
110,1456704108242069,0.06964256086206272,0.08203719281993756,0.17754765208353993
111,1456704108265071,0.060229590703358184,0.08547351999204453,0.14771874235220148
112,1456704108286082,0.05261133850109682,0.08429187037728327,0.11348236695445234
113,1456704108302120,0.049912210955799514,0.07835434785179143,0.081339250168462
114,1456704108325119,0.0531902545940292,0.0685035631884593,0.056351064829809845
115,1456704108349120,0.061181961875150216,0.05648067433766822,0.04092611330614817
116,1456704108362330,0.07108014623651207,0.04484620364054595,0.0347870393928545
117,1456704108385501,0.07988011026396973,0.0366406544495543,0.03598064403415701
118,1456704108406274,0.08559945086435661,0.034561915665407686,0.042248148411911074
119,1456704108421999,0.08782799036148686,0.03984952668635755,0.05193891497622307
120,1456704108447002,0.08744123339816373,0.05146136345968187,0.06403979697913162
121,1456704108466009,0.08573349654596278,0.06610248315463788,0.07754239402268763
122,1456704108489771,0.08352718015116838,0.07922565258922962,0.09080568573841903
123,1456704108505778,0.08080138268824644,0.08660958079542098,0.10151012764554107
124,1456704108526116,0.07700667448343906,0.08585145335818667,0.10733160326253015
125,1456704108542780,0.07174384364382855,0.07717084141705274,0.10691274918869824
126,1456704108564784,0.06527912622959377,0.063223577111637,0.10045954543748177
127,1456704108586575,0.05859253094218865,0.04803492908728361,0.0895554703409899
128,1456704108601870,0.05303346112992648,0.0355291982906284,0.07635993062765231
129,1456704108624871,0.04984001909733499,0.028281653355132316,0.06276594225747685
130,1456704108645874,0.04972943147306882,0.026954464236612064,0.050035680784408246
131,1456704108661874,0.05266526221032523,0.030497196461152433,0.03900900297870781
132,1456704108685724,0.05784896633055579,0.036840449256224414,0.030553626894960422
133,1456704108706179,0.06393298883399473,0.04370071999082003,0.025829123631241815
134,1456704108721912,0.06937633271546569,0.04923493900302644,0.02617482891518581
135,1456704108745914,0.072809682500679,0.052431681852030586,0.03270821475940016
136,1456704108766915,0.07331041197896863,0.05317749537694365,0.04581267419363766
137,1456704108782654,0.07057643258816414,0.05198902008995378,0.06466437916297543
138,1456704108805381,0.0650311638066529,0.04957041184224252,0.08695169738256094
139,1456704108826371,0.05786349090796732,0.04652974133112687,0.10898552106465445
140,1456704108842154,0.05096493873737711,0.04353985653699587,0.12636888224299023
141,1456704108865160,0.046695564826700175,0.041927146287752716,0.13520984339435083
142,1456704108894547,0.04739859572071159,0.04432618276780712,0.13356250674558542
143,1456704108902243,0.054670941483119656,0.054865595236344454,0.12252507090320398
144,1456704108925245,0.06861377248605233,0.07844895740766943,0.10641335530450048
145,1456704108947247,0.0874771639442904,0.11908913266305385,0.09174764215110895
146,1456704108962246,0.10805392400516389,0.1778501150210749,0.085295482672965
147,1456704108985484,0.1267967991386629,0.2514114772486573,0.091821807332201
148,1456704109007688,0.14111669380099837,0.33213402721221386,0.11232145730868896
149,1456704109022694,0.15009551607232413,0.40964993246180903,0.14336733134879512
150,1456704109046473,0.15424147620735063,0.47303707751074553,0.17789633651594614
151,1456704109067687,0.1546498062593416,0.5125120300887743,0.2072888703394128
152,1456704109084199,0.15227859436782165,0.5205129452396932,0.224022226273188
153,1456704109105492,0.14771617512191385,0.493012490083853,0.2238326627760772
154,1456704109127493,0.1413144527051552,0.43154281372384173,0.20661597061709458
155,1456704109144494,0.13342244054420901,0.34481608006783293,0.1760373723028709
156,1456704109165496,0.12457262496690351,0.24789981760063473,0.13828907515480365
157,1456704109187680,0.11553224390493842,0.15816799122593803,0.10040318637044515
158,1456704109208732,0.1071390383364708,0.08967818731419439,0.06846546434316549
159,1456704109225734,0.09995321175015558,0.0488700933374872,0.04619374882190349
160,1456704109246737,0.09394481390071026,0.0336016551215827,0.034335542745777985
161,1456704109267744,0.08849827139581405,0.035555285196324594,0.03103936296387226
162,1456704109285263,0.08281882333896999,0.04441893769412037,0.03296269814132628
163,1456704109306755,0.07650903310104072,0.05175882568714799,0.03662091719847792
164,1456704109328754,0.06995221089857796,0.05313977664649729,0.03945741583245638
165,1456704109345600,0.06428024327182405,0.04821471867668911,0.04032013355400459
166,1456704109366602,0.0609221543142624,0.03942249635089549,0.03933465248678258
167,1456704109388424,0.06090689494970417,0.030212156845014496,0.037391413878626205
168,1456704109404958,0.0642534090394997,0.0235057223875581,0.03553567667729681
169,1456704109426939,0.0698167624097328,0.020769902825059854,0.034502221427733924
170,1456704109455941,0.07571733796297644,0.021791742241627075,0.03452436605270132
171,1456704109464976,0.08009724693355723,0.025066263768981287,0.03540761995057357
172,1456704109487451,0.08175513509852295,0.028567043684139395,0.03675342988646111
173,1456704109507961,0.0803490469690494,0.030571997097247623,0.038191966115243975
174,1456704109525204,0.07618068423014335,0.030211320127557863,0.03952531648141484
175,1456704109547174,0.06982695521134734,0.027556651860433143,0.04075979939382227
176,1456704109567965,0.06189859732636816,0.023323505318202507,0.04206341097337861
177,1456704109585666,0.05302429670292493,0.01843976481625536,0.0436712487684248
178,1456704109606973,0.043970123308235916,0.013730494451971812,0.04572295715675568
179,1456704109628975,0.03572950467448104,0.009829413351371075,0.048058199502026555
180,1456704109644976,0.02944223249159303,0.007263590322282434,0.050106304595193656
181,1456704109666976,0.026089723214600836,0.006555284706255872,0.051026500210321325
182,1456704109688278,0.026062700674643523,0.008186700395923452,0.05009542583282424
183,1456704109707287,0.02883695853831968,0.012379455543939323,0.04712557500425689
184,1456704109733555,0.032996656720423415,0.01879210744755011,0.04264517341759717
185,1456704109748295,0.03667430007590476,0.02633432554217332,0.03772952271185465
186,1456704109765291,0.03824664826523973,0.03326068848242966,0.033587737622981936
187,1456704109787661,0.03699516593737842,0.03756979345834175,0.03111040208209123
188,1456704109810234,0.03346417031317009,0.03760422187357486,0.03056214498167373
189,1456704109825235,0.029368762943834902,0.03268782471735828,0.031536266796772655
190,1456704109847237,0.027047378059792123,0.023618362542635,0.033211257297979746
191,1456704109876534,0.028603028811356304,0.012827945084444136,0.034844124685330005
192,1456704109885035,0.035019846682242464,0.004067673192799211,0.03631267455211071
193,1456704109906551,0.04560881955539295,0.0015926015121896485,0.03844408459785532
194,1456704109929552,0.05805215892623734,0.00897815540610537,0.042899106651132654
195,1456704109945554,0.06909307185948137,0.027840544554470832,0.05153486461545849
196,1456704109966553,0.0756551879601696,0.05685140600787044,0.0654276115912426
197,1456704109990061,0.07597713993800112,0.09150193352371304,0.08400266815747519
198,1456704110005576,0.07030184620676001,0.12496932259562424,0.10479320032540554
199,1456704110026577,0.06082941325865221,0.1500504075345468,0.12408709896480205
200,1456704110049578,0.05097628872345105,0.16154894824135715,0.1382250267220894
201,1456704110065580,0.04428213307185042,0.1581134364825003,0.14492614830086686
202,1456704110087640,0.04337644635156731,0.14270219019820685,0.144046442329434
203,1456704110109794,0.04927237968663854,0.12156288054612337,0.13755718473919368
204,1456704110125796,0.06108680697178965,0.10232544948914474,0.1288975420656491
205,1456704110146799,0.07622760204186961,0.09200944852365658,0.12197526726807764
206,1456704110169058,0.0910898976317001,0.09548874086338478,0.12007156974343448
207,1456704110191230,0.10222031127670227,0.11465200207023162,0.12489723915901998
208,1456704110206525,0.10765382737634986,0.14831080590746337,0.1360237670874088
209,1456704110228739,0.10780515284618904,0.19270705366807295,0.15083614318111707
210,1456704110251742,0.10526335225440754,0.24226716398771156,0.16507466170145552
211,1456704110266528,0.10339589855078757,0.2902577874269471,0.17395713722611883
212,1456704110289619,0.10451699828284691,0.3292967290494017,0.1736795954787709
213,1456704110311403,0.10873149277175435,0.35206000566497664,0.16276826416006887
214,1456704110326404,0.1140523318570522,0.35264907663767403,0.14262496657363177
215,1456704110349121,0.11750438588356991,0.3286192104228005,0.11698921317151817
216,1456704110371406,0.11645305104005332,0.28273595283997016,0.09066129235343488
217,1456704110386147,0.10957730518488557,0.2230160721798906,0.0680954504679093
218,1456704110409164,0.0973282379510543,0.16041349686857787,0.05228474593588867
219,1456704110433160,0.08188879234592557,0.10517099896821547,0.04412792801125877
220,1456704110447162,0.0665880241654617,0.06381501017691882,0.042400994433778816
221,1456704110469445,0.05479451972517674,0.03815956564356119,0.044378642270939885
222,1456704110491735,0.04863953766052694,0.026225941449670297,0.04692720369804921
223,1456704110506252,0.04817258117495187,0.024001408692081415,0.0476437037017888
224,1456704110529084,0.0514083066143979,0.027016024083418955,0.04556489477849327
225,1456704110550972,0.055254636538493204,0.031350193956149165,0.041197841404307614
226,1456704110565966,0.05684469341440573,0.03417826358525748,0.035988591568344025
227,1456704110589477,0.05461608281381495,0.03403055355114004,0.031594095903032395
228,1456704110611495,0.04868237516838889,0.030808468861128164,0.029306033773422446
229,1456704110626495,0.040468299983667806,0.025503294090112677,0.029769604526925713
230,1456704110649497,0.03194020830734329,0.019657769433620135,0.03294502353617647
231,1456704110671637,0.02486835074469335,0.014758118816468014,0.03819779015996691
232,1456704110686446,0.020414298874288854,0.011780741512448022,0.04445325170988151
233,1456704110710686,0.019067516766368225,0.011007650687059481,0.050419825846663255
234,1456704110731446,0.020739875338611245,0.012084520940923753,0.05489010865581012
235,1456704110746448,0.02482254772903465,0.014235477467943144,0.05704802574745705
236,1456704110769627,0.03019315722069386,0.01656294641326417,0.0566318183534118
237,1456704110791598,0.0353254259575812,0.018368258605430694,0.0538604023243747
238,1456704110806634,0.03862620026154665,0.01939468157699095,0.04921184161982844
239,1456704110828848,0.038934245609866275,0.019883519797570977,0.04325370394677429
240,1456704110851667,0.03594116423462584,0.020415729207280908,0.03663948162100498
241,1456704110865639,0.03029790089449709,0.021640133650151036,0.03021226117592413
242,1456704110889699,0.023351676160267076,0.02404202367628377,0.025069145059602928
243,1456704110910747,0.01666381657975477,0.02783274465742962,0.02246859519258537
244,1456704110925748,0.011536230023264276,0.032915212603564135,0.023546065102275072
245,1456704110948742,0.008709161834404823,0.03882311961742624,0.02890277473191876
246,1456704110970956,0.008279555340501189,0.044615584115563676,0.03822261182232667
247,1456704110988523,0.009808314797119296,0.04887675681318571,0.050111411776887334
248,1456704111009214,0.0125528939595435,0.05003961134449227,0.0623141526742301
249,1456704111030987,0.015765054596413114,0.04709405420507582,0.07234078474423963
250,1456704111047987,0.019006288248357418,0.04044591467575466,0.07833613578429914
251,1456704111069297,0.02241882546412662,0.03250329658640254,0.07986250661675645
252,1456704111091583,0.026840191488134844,0.027607818241709426,0.07826050030360485
253,1456704111107602,0.033618718634034254,0.031126896502110223,0.07640426941866635
254,1456704111128887,0.044058902789679236,0.04777357739227526,0.07782847769518593
255,1456704111151689,0.058623631458735656,0.07952182115817953,0.08534938666965018
256,1456704111167663,0.07624838501225124,0.12383311753543813,0.09955680234922726
257,1456704111189896,0.09419831720022112,0.17312752617551774,0.11788598900611094
258,1456704111211491,0.10870129167458906,0.2162097723799144,0.1350350917794959
259,1456704111228191,0.11619224455098097,0.2415549125733819,0.1449299289542435
260,1456704111249193,0.11464984052334075,0.2413148539085578,0.143447077882503
261,1456704111271406,0.10442866491516602,0.21435352439537864,0.13045047609680938
262,1456704111288587,0.08823672837656998,0.1670147317216604,0.11000550382490815
263,1456704111309344,0.07030970332093993,0.1113955088326854,0.08871042108539216
264,1456704111331415,0.055139678346784265,0.061917590250354475,0.07310603327532597
265,1456704111347134,0.046203422254583085,0.031450138572454614,0.06746200627497971
266,1456704111369136,0.045077280710522145,0.028138025374723066,0.07286956226257132
267,1456704111391375,0.0512161812673967,0.05371581295867279,0.08782135805664981
268,1456704111414368,0.062476946806383236,0.1036437570120162,0.10969561090692834
269,1456704111429368,0.07616346895836218,0.16892443563682782,0.13615269785144574
270,1456704111451369,0.09011437565950103,0.23894935908019446,0.1656676469706861
271,1456704111474608,0.10332887705363446,0.30430314747573173,0.1971109297086744
272,1456704111489339,0.1158786556709362,0.3584087857803883,0.22888941378613023
273,1456704111511551,0.128258140038684,0.39746561463799507,0.2582743598328297
274,1456704111534594,0.14062496504548522,0.41911625498973615,0.281312544221889
275,1456704111549364,0.15236106042619854,0.42109609770914064,0.2934503418634255
276,1456704111571355,0.16209854597235604,0.40120531445690283,0.2907977613028335
277,1456704111594546,0.16806981580866037,0.3590215266724315,0.27173434175530226
278,1456704111609618,0.16856768679530032,0.29819969746216735,0.23821555476517373
279,1456704111631514,0.16243931821844368,0.22726407041154362,0.19589529160780952
280,1456704111654329,0.149656882792372,0.1576764466066199,0.15257367501529798
281,1456704111669294,0.13184808822801783,0.10007256125623136,0.11553869078979681
282,1456704111691799,0.11234290655295893,0.06087513841641791,0.0892048159160555
283,1456704111713605,0.09530594098678934,0.04094596896622333,0.07424482412144676
284,1456704111728892,0.08411837330839779,0.036431043518751496,0.06838492309254361
285,1456704111751644,0.07985201169030996,0.040905384887656125,0.06808891192715416
286,1456704111773615,0.08075239870866023,0.047761960770189925,0.0701199616232075
287,1456704111789133,0.0830534874409851,0.052074134441061515,0.07237138974203765
288,1456704111811642,0.08268411794731023,0.05150733552457113,0.07392864181754735
289,1456704111833930,0.07698203524219302,0.04622249397606615,0.07467379640787355
290,1456704111848645,0.06560953564895218,0.03806896468361239,0.0747773141200748
291,1456704111870653,0.05037663885017557,0.02953674503762662,0.07428372874578948
292,1456704111894734,0.03426580252674911,0.022852393655049208,0.07289153207449371
293,1456704111910735,0.020243483673268375,0.01940192817671845,0.0699999237180551
294,1456704111930738,0.010362686656548038,0.01951528673927415,0.06502232353178314
295,1456704111954738,0.005390914993186724,0.0225746844889269,0.05780050410366633
296,1456704111970739,0.0049303463852640944,0.02735289472896846,0.048848951593380624
297,1456704111991262,0.007830570533284193,0.032439605489015616,0.03926469618268232
298,1456704112014779,0.012662307768893077,0.03662845970690613,0.030378264315140804
299,1456704112030779,0.018093018370252654,0.03921017432883773,0.02337928185182793
300,1456704112050788,0.023106991367458724,0.04014634478762924,0.019102009960230017
301,1456704112074782,0.02708652543726318,0.040044604632652935,0.017984460846035347
302,1456704112090094,0.029804684982067533,0.03985021049510737,0.020101197553497357
303,1456704112111627,0.03137257119788686,0.04031994227049588,0.02519117369815031
304,1456704112134660,0.0321410901209873,0.04153138579638265,0.03267334381982318
305,1456704112150587,0.03252965238599226,0.04271133193140375,0.041668789603517296
306,1456704112170593,0.03280389516034364,0.042527628676508375,0.0510494091985585
307,1456704112193918,0.03292157838934472,0.039796750940897865,0.05957492089661019
308,1456704112210925,0.03259074804100272,0.034382088820787415,0.06621811198170935
309,1456704112231949,0.03156795608338143,0.027911404109287805,0.07067016458552465
310,1456704112253969,0.030037389254632528,0.02389278707122246,0.07375655666240714
311,1456704112270962,0.028801556109659187,0.026955603161982825,0.07735013912132434
312,1456704112292438,0.02908548548024114,0.04127833545332625,0.08360799752806504
313,1456704112313953,0.031986910687149615,0.068641925838401,0.09384255323908564
314,1456704112331125,0.03783789288052981,0.10682605280586935,0.10763099383594077
315,1456704112351147,0.045810416111805814,0.14917065326971268,0.12266348094620214
316,1456704112376227,0.05398517364272867,0.18591263265604258,0.13549596997021748
317,1456704112391164,0.05992214252681682,0.2072168738645648,0.14298592987493064
318,1456704112411619,0.06157998814587558,0.20683523060503758,0.14379618536581315
319,1456704112434650,0.05823220014827253,0.18470961624852084,0.13913840727820562
320,1456704112450647,0.050939456270774446,0.14719905683919043,0.13221229942125945
321,1456704112471546,0.04230221167316657,0.1048438625305857,0.12657690745066802
322,1456704112494483,0.035553672017803135,0.06884835586504007,0.1244394554457904
323,1456704112510649,0.033337012596495276,0.04791663731491333,0.1259445531191184
324,1456704112531615,0.03663011688633749,0.046544978749401646,0.12986443155159214
325,1456704112554609,0.044250187622191614,0.06490748227284787,0.13511616568691043
326,1456704112569498,0.05321595848124742,0.09975586671046642,0.1419704297104948
327,1456704112591584,0.05997359790252799,0.14561233106188584,0.15206395271812723
328,1456704112613612,0.062112060947809446,0.19586079722301275,0.16720359986607725
329,1456704112629613,0.05981240920914739,0.24375302044153863,0.18783310148281385
330,1456704112651628,0.05618415232667121,0.2834471541872602,0.21225994867908374
331,1456704112673615,0.05609839768768962,0.31092926507708135,0.2370874583173572
332,1456704112690363,0.06396374945371679,0.32439543484852557,0.2583235984469055
333,1456704112711149,0.08152906724690753,0.32381189332891414,0.27229100855055705
334,1456704112734165,0.1067869294081984,0.30994126485618534,0.27601559592450015
335,1456704112749868,0.13445505665251437,0.28365599743425296,0.2674820272858447
336,1456704112770867,0.15775499467711432,0.24624771851158558,0.24619409369883422
337,1456704112794594,0.17070702639979732,0.20053921371960212,0.2138697873017083
338,1456704112809600,0.17008344281426116,0.15165127743061163,0.17457523793162244
339,1456704112832600,0.15639606599120298,0.10632288915465389,0.13383227784284035
340,1456704112854601,0.1336289556958535,0.0708264824989676,0.09703192235825438
341,1456704112869603,0.10778550327357528,0.0486761365822528,0.06799456747184587
342,1456704112893560,0.08474931788164466,0.03948377725075036,0.04829882235250051
343,1456704112913953,0.06833777516764192,0.03952170814414994,0.03744142450429601
344,1456704112937097,0.059390841287671726,0.04356063301851423,0.033511496633071514
345,1456704112952837,0.056166764095023844,0.047004353045667614,0.03399008018324816
346,1456704112974141,0.055625244021654856,0.04737979382692688,0.03640672248086832
347,1456704112995883,0.05485640681567739,0.04468023548219335,0.03877187149624499
348,1456704113012884,0.052054947471673316,0.040628093208540966,0.03984073625515685
349,1456704113034221,0.04682409337868131,0.037374205217811464,0.03926317029118289
350,1456704113057222,0.039940991904936884,0.03631416365371411,0.03756577167239259
351,1456704113072887,0.03284356047713488,0.037530731341132904,0.03586336921130746
352,1456704113094388,0.027042482191812,0.03998004230309083,0.03532156287343756
353,1456704113116596,0.023594683028384793,0.04217247291827354,0.036582600244795205
354,1456704113132596,0.022780437680414538,0.0429476355123695,0.03943015332037797
355,1456704113153603,0.024116211932793983,0.04200179738031823,0.04285370162681966
356,1456704113177668,0.02670499657206207,0.03998770014759923,0.045475559599215044
357,1456704113193109,0.029725505020086418,0.038200343942257055,0.046138812446248664
358,1456704113214118,0.032768445158972884,0.03802736032067739,0.04439247014752685
359,1456704113237422,0.03585031860060891,0.040398506016344364,0.040667273557305504
360,1456704113253120,0.03917125527146963,0.045405822717096964,0.03608233781335683
361,1456704113274128,0.042824194890560045,0.05216966161375041,0.0319887714145817
362,1456704113296361,0.04661949975787366,0.05896212630538518,0.0294523025910019
363,1456704113313363,0.05005784938347595,0.06356315442695944,0.02886997258925103
364,1456704113336545,0.05240818011622286,0.06380542133994505,0.029860519559481966
365,1456704113357364,0.05287216908475731,0.05826611891393915,0.03150817230164639
366,1456704113373365,0.050864493638455154,0.047042220431227966,0.03294085023345975
367,1456704113394373,0.04639646632632342,0.03242570164884846,0.03405721041441641
368,1456704113416379,0.04040643519191231,0.019111091410526467,0.03605159728300313
369,1456704113432380,0.03477048854772724,0.013525124738477353,0.04135396244334094
370,1456704113453386,0.03181222577852744,0.022143519474299145,0.05279022821268991
371,1456704113477525,0.03340997417166607,0.04916049505001318,0.07214766686889752
372,1456704113493492,0.04009367109989253,0.09432059098606317,0.09875176560121414
373,1456704113514589,0.05062387308347488,0.15189450119294007,0.1288925136217607
374,1456704113537616,0.06236200143365347,0.21156047663920816,0.15672950582729545
375,1456704113552590,0.07234574027336159,0.26124804045517425,0.17657427780314297
376,1456704113573879,0.07857730596500793,0.2909787820508495,0.18551750474026704
377,1456704113597411,0.08086632174988427,0.2960290808644036,0.18489794350565644
378,1456704113612412,0.08078577160217212,0.27798989495283816,0.17957980829852171
379,1456704113634577,0.08077669761136141,0.24346264682643226,0.17526070370406863
380,1456704113657613,0.08287068962601807,0.20139431114540837,0.17532388543640873
381,1456704113673535,0.08766272957544634,0.1605227577714243,0.17916087229821442
382,1456704113694212,0.09402066981602858,0.12787664403305954,0.18300384051124036
383,1456704113717609,0.0996528298690702,0.10836007148956858,0.1826961159863032
384,1456704113731493,0.10224675350111384,0.10485459527952275,0.17666230995167204
385,1456704113753500,0.10062788814704018,0.11819105520203499,0.16734177966466024
386,1456704113777608,0.09538823522772123,0.1466768572262331,0.16033637003197643
387,1456704113793663,0.08871712440257595,0.18547449587644624,0.16179703941656448
388,1456704113815793,0.08357754244138318,0.226632723932842,0.17543625261686036
389,1456704113836801,0.08263998989808821,0.26042502658260314,0.2006012579822664
390,1456704113852795,0.08737208358157553,0.27783137309543954,0.2321436060927433
391,1456704113875796,0.09751277467254434,0.27321187729994467,0.26190125329576885
392,1456704113897040,0.11103601997896513,0.2460991689160516,0.2810829510056456
393,1456704113912810,0.12466883687936109,0.20151405562789254,0.28284158946838606
394,1456704113935811,0.134931191436912,0.1488225993147374,0.26446109855093247
395,1456704113956855,0.13939163767552384,0.09956388856676096,0.22856173708213737
396,1456704113972813,0.13754466611834998,0.0647833267988109,0.1827103760558852
397,1456704113995822,0.13078404128364246,0.052325349104156114,0.13718521871932857
398,1456704114017124,0.1214749130923879,0.06455369956059744,0.10149062611337924
399,1456704114040829,0.11170602091928691,0.09716585692724504,0.08106138728800338
400,1456704114055867,0.10243587402522837,0.13983749853024025,0.07569731668471248
401,1456704114076868,0.09340717495385858,0.17900548543823724,0.08040171040969847
402,1456704114093346,0.08375017346829727,0.20217836858371985,0.08802115732651515
403,1456704114116515,0.07287782563939806,0.20221516239563905,0.09225647373463783
404,1456704114137509,0.06115239309974177,0.17972652699919647,0.08970417207454413
405,1456704114159504,0.049952762312748665,0.14249800351764078,0.080358147613805
406,1456704114176507,0.04115521970146671,0.10222414711997072,0.06680650207640675
407,1456704114197573,0.03636115059531666,0.07002699391504066,0.05275938277352727
408,1456704114219574,0.03624152829921213,0.05262230349108432,0.04155826671057101
409,1456704114235575,0.04021892092118601,0.05055350053109951,0.03514741445561554
410,1456704114256825,0.046562135980736406,0.05894696662519098,0.03373862214279687
411,1456704114278583,0.052872041115427204,0.07019288461012038,0.036112906493832045
412,1456704114296084,0.05683341376706118,0.07725640161019913,0.0402876263106102
413,1456704114316841,0.056974806130558844,0.07623230378209209,0.044246848925671864
414,1456704114338793,0.05311181787903188,0.06725345367982954,0.04654194677726143
415,1456704114355593,0.04627997141803204,0.05368754602791526,0.046665131467648766
416,1456704114376846,0.0382467726319338,0.0402943438522755,0.045124426139057365
417,1456704114398636,0.030893686459533803,0.03129863781787745,0.04318686059118522
418,1456704114415605,0.0257247479913118,0.02910872251050296,0.042363928850706285
419,1456704114435809,0.02358758159285074,0.03394191220685153,0.04382510318769184
420,1456704114459609,0.02457632603687044,0.0442078535808874,0.04795230670559948
421,1456704114475609,0.028087454786855443,0.05729247570991361,0.054181283345405645
422,1456704114496621,0.03303523071124099,0.07039453480043904,0.06116978828707852
423,1456704114519628,0.03820630236817735,0.08121473412033549,0.06724615507567162
424,1456704114536629,0.042641169098311164,0.08843913620088639,0.07103319523491983
425,1456704114557631,0.04586855855942532,0.09198671281200355,0.0720613208645647
426,1456704114578918,0.04788028728662459,0.09293983308882597,0.0710843452069813
427,1456704114595143,0.04889568300399054,0.09307885402435438,0.06983393656504727
428,1456704114617652,0.04908898334770063,0.09408442603276744,0.07021472853434055
429,1456704114640653,0.048442179325503716,0.09670886741858903,0.07332466345859495
430,1456704114654654,0.0467887100890804,0.10038335987231216,0.0788738817472827
431,1456704114677655,0.044024822543240444,0.10360355882062729,0.08536689367851531
432,1456704114698953,0.04038790616702965,0.1049467281181685,0.0909100101915716
433,1456704114714676,0.03661796911849718,0.1040292983087737,0.09408504162492093
434,1456704114737676,0.0338194703633762,0.10169140709413199,0.0943557744539742
435,1456704114759678,0.03300914791748102,0.09936369883672778,0.09192734105256148
436,1456704114774679,0.034570164047733505,0.09829312704435121,0.08742195268882365
437,1456704114797702,0.037935914573782904,0.09930901794765948,0.08174620693531735
438,1456704114818989,0.04171667928548115,0.10314741623461732,0.07614805675853484
439,1456704114834702,0.04424399555295469,0.11079155123121567,0.072150517276172
440,1456704114857703,0.044293576190145484,0.12335901562005021,0.07115283582459263
441,1456704114878711,0.04166039078020881,0.1415217557863053,0.07385684385032668
442,1456704114895215,0.037313851326540554,0.16474435058510165,0.07988628348872072
443,1456704114917723,0.03303791648108177,0.19066475880715536,0.0878516446101158
444,1456704114938726,0.03071954961046453,0.21496926164562938,0.09586254042075727
445,1456704114954726,0.03165989765572144,0.2321239698549872,0.10231507614765616
446,1456704114978727,0.03626765190570868,0.2369860956013437,0.10666842689428745
447,1456704114998958,0.044209675115629725,0.22662753812209532,0.10979250426853421
448,1456704115014751,0.05473573953531685,0.20135104476480936,0.11347453053806143
449,1456704115037752,0.06678566527577813,0.16443910969447806,0.11908658335397582
450,1456704115058861,0.0787890640265261,0.12113293916022695,0.1261191409182333
451,1456704115075014,0.08851919601875036,0.07766437711523515,0.131695379895617
452,1456704115097776,0.09345931816195628,0.040688275257325476,0.13180048133682526
453,1456704115119063,0.09172528688561608,0.01689117662463395,0.12386154193886323
454,1456704115134781,0.08307735304725312,0.012372366853067956,0.10919350627052385
455,1456704115157781,0.06942749335471061,0.03152606872256822,0.09360429502989522
456,1456704115179081,0.05454129265975992,0.07545709032793685,0.08546308042821131
457,1456704115195793,0.043046791972945773,0.14042304656254595,0.0920844807775121
458,1456704115217801,0.039139181933845926,0.21722316439833692,0.11626675150121801
459,1456704115239097,0.04543201486663443,0.2924118721386083,0.15469796383452122
460,1456704115254803,0.06229620369040543,0.3514656376785941,0.19892980136028246
461,1456704115277804,0.08782334010274723,0.3829149464628191,0.23831446010351726
462,1456704115299109,0.11831559157938018,0.38170934077248225,0.26340196839208935
463,1456704115314823,0.14903724619985698,0.3503280598391945,0.26835774111408084
464,1456704115337827,0.17498524232867196,0.2973885838066693,0.25190672767186567
465,1456704115358827,0.1916411210461848,0.23487462561124398,0.21724009790099272
466,1456704115374845,0.1958245257752654,0.1754276308187979,0.17136322351266955
467,1456704115397840,0.1866383963916024,0.13026164783350996,0.12377849415593344
468,1456704115419109,0.1661504725346139,0.10733997208445858,0.0842417591026943
469,1456704115441849,0.1392518428760023,0.10953682884197932,0.05998968388057176
470,1456704115457844,0.1123726220338059,0.13331351533109143,0.05353237324840842
471,1456704115479012,0.09139145823607009,0.168936051584003,0.062039083735339326
472,1456704115502156,0.07970116352190885,0.20288993685359483,0.0786126837639709
473,1456704115518140,0.07739545334876284,0.22211645500121627,0.09493902499795631
474,1456704115539442,0.08184962994482173,0.21857011457695855,0.10427832510048184
475,1456704115563142,0.08918722799030776,0.19204956667745712,0.10363740809047492
476,1456704115578143,0.09581726093461009,0.14984746940910582,0.09428194110855706
477,1456704115599161,0.09939899757121919,0.10338840266506581,0.0804898002573717
478,1456704115622162,0.09899976446987113,0.06365285438906437,0.0672940663427718
479,1456704115638164,0.09467660201131839,0.03764886498337062,0.05838230682216168
480,1456704115662163,0.08699706543677334,0.02724428351192657,0.055031519169458545
481,1456704115682184,0.076865580946416,0.030149888015985168,0.05625431468419232
482,1456704115706196,0.06555557560002334,0.04185079431184895,0.05974003125011768
483,1456704115721191,0.05457445007648491,0.05731294075008107,0.06297690051636927
484,1456704115742238,0.04521869914487382,0.07199940840204214,0.06409437800689617
485,1456704115758199,0.03810047897702666,0.08239211518277852,0.06226086228685632
486,1456704115781230,0.03302784036969918,0.08637218820953767,0.05768843892709226
487,1456704115802413,0.029324101595432337,0.08354714330240391,0.05135421291799847
488,1456704115818251,0.026332140186310457,0.07530795942444837,0.04454900950277135
489,1456704115841256,0.023763339347537483,0.06437026459822731,0.03840390384751725
490,1456704115862256,0.02171721506043175,0.05383081034552833,0.03357770142323541
491,1456704115878465,0.020440946505834896,0.04610883832374895,0.03022168926211083
492,1456704115900462,0.02004390947224009,0.04225014522242517,0.028178633373505242
493,1456704115922445,0.020358953980657322,0.04186518852453683,0.02724230828301371
494,1456704115938347,0.021010103726780582,0.04362194383309938,0.027307946827392703
495,1456704115961444,0.021617823882856553,0.0459688936800853,0.028355798502799408
496,1456704115982397,0.022005602843145126,0.04774543607303871,0.030319788365800227
497,1456704115997456,0.022275888433572987,0.04848572821134379,0.03294360005827715
498,1456704116021462,0.02270577678485748,0.04839886580990409,0.0357289025527265
499,1456704116041482,0.02353792412820201,0.04811670062341763,0.03803179951384484
500,1456704116057464,0.024812873141445528,0.04832232720227147,0.03926075507257486
501,1456704116080466,0.026336530002409875,0.049356849658626224,0.03905960035332948
502,1456704116101518,0.027755783273214412,0.05092520780522795,0.037419762332737846
503,1456704116117478,0.028660221144925706,0.052080137159810684,0.03477736088600536
504,1456704116140479,0.028685164516001886,0.05162687591993725,0.03213055207172616
505,1456704116161516,0.027652337216780367,0.04886429602703741,0.031054360865825432
506,1456704116177481,0.025746308418485468,0.04428640714866656,0.033400489336897494
507,1456704116200501,0.023634726119604592,0.039766812993047844,0.040603192391027255
508,1456704116221507,0.02240539499560128,0.037952741782330726,0.05280680682300049
509,1456704116237503,0.023253224599440493,0.04100064190680608,0.06828172252699097
510,1456704116260504,0.026989878736990488,0.04920124654643411,0.08359065933430884
511,1456704116282060,0.03360761076456872,0.060267503241512484,0.09462244851938448
512,1456704116297561,0.042178232669766585,0.06990469286663266,0.09810953027017692
513,1456704116320567,0.051210685742064624,0.07370617067711836,0.09296362947730566
514,1456704116341831,0.05929824989089369,0.06966341350645804,0.08091455068209145
515,1456704116357569,0.06567118265239665,0.06008571186456366,0.06632613794136784
516,1456704116381570,0.07030603667483472,0.05182352128279134,0.05533062033225395
517,1456704116402519,0.0735364744627202,0.05434718076168399,0.054468002422405265
518,1456704116418298,0.07549685528784088,0.07613036697210612,0.0690174555615995
519,1456704116440565,0.07592238039757748,0.12059548733207928,0.10130072990122609
520,1456704116464299,0.07458503824695861,0.18332744053343103,0.1494097731340902
521,1456704116478444,0.0720574840182829,0.25206681355919075,0.20695002327561146
522,1456704116499734,0.07007595361885964,0.3100137725145765,0.26426357681003837
523,1456704116521776,0.07099933372710687,0.3415098578394474,0.31102627363863755
524,1456704116537959,0.07660583912129318,0.3379127651224141,0.3393326440665884
525,1456704116559738,0.08703716568436624,0.30115110163016107,0.34595712457815536
526,1456704116581776,0.10057232353816693,0.24336534785172123,0.3328221739524184
527,1456704116598272,0.11427583431750521,0.18280216209437689,0.30567598603449264
528,1456704116619780,0.1250230409440584,0.13766635304653574,0.27184984727828965
529,1456704116642781,0.13035290710551029,0.12012212161624584,0.23805229915849357
530,1456704116663782,0.12893535814995313,0.13228388251814138,0.20869621194707466
531,1456704116679783,0.1207578318231939,0.1654913849004617,0.1850202551879124
532,1456704116702814,0.10714367892828693,0.203422852239659,0.16535674185151025
533,1456704116724005,0.09053399163030762,0.22827182713559951,0.1466533764678167
534,1456704116740045,0.07392768184391271,0.22762229014056315,0.12657524204329937
535,1456704116762814,0.06006313385302437,0.19897367609018557,0.1049750235172829
536,1456704116784238,0.050621114160731576,0.14993295442821775,0.08392875125710157
537,1456704116799569,0.045765849051076946,0.09435678716496736,0.06652144606126428
538,1456704116822572,0.04422293496417332,0.04664533175991933,0.055233131075569174
539,1456704116843580,0.043875051948745004,0.016825839576236963,0.05077455526771577
540,1456704116859576,0.04262711318181041,0.008124346972744095,0.051833553268191314
541,1456704116883367,0.03917714502444071,0.017307085012951237,0.05573393095088556
542,1456704116904013,0.033403636195464284,0.036988717436139844,0.059615096643355785
543,1456704116919801,0.026289609337764922,0.05866955979800216,0.06153093552721971
544,1456704116950803,0.019498190097574312,0.07539350754860123,0.060966091874846015
545,1456704116964050,0.01479074319675915,0.08333707063964199,0.058627097696041366
546,1456704116979806,0.013462888484373294,0.08209896679546297,0.055741269999147844
547,1456704117004609,0.01593750312567281,0.0738706212448351,0.05328360743584654
548,1456704117023616,0.021612842557399172,0.06200396441332197,0.05151523615174897
549,1456704117039611,0.02899965890074935,0.049632619243563124,0.05001366235420996
550,1456704117062613,0.03610664305422837,0.03883314509457436,0.04810526298773434
551,1456704117084193,0.04098234123413591,0.03044671731316253,0.04541182304246787
552,1456704117099927,0.042288158540738974,0.024385286105255796,0.042196089882908266
553,1456704117122928,0.0397329180408175,0.020155480603582777,0.0393262280413581
554,1456704117144213,0.0341833216175615,0.01736569972436766,0.037887567597902606
555,1456704117159932,0.02736278684369481,0.01602488840849068,0.03865204320419787
556,1456704117182931,0.02124678888099953,0.01650859965766964,0.041682667557680256
557,1456704117203454,0.0174067724353687,0.019217181752766554,0.046263690419846154
558,1456704117227449,0.01654371347812599,0.024130628481842827,0.05116518311974104
559,1456704117242450,0.018341082977422003,0.03053702559929509,0.05509339635742597
560,1456704117263452,0.02165588468758128,0.03711546749184276,0.05712952853640196
561,1456704117280455,0.024980491636663382,0.04236285080480017,0.05700749198063346
562,1456704117303403,0.02702688388382573,0.04517487919343515,0.055151209122941004
563,1456704117324404,0.0272194739383318,0.04529121203639527,0.05244766761643854
564,1456704117340381,0.025888965282388154,0.04334851030591341,0.049810148327872214
565,1456704117370416,0.024082297447080358,0.040491584632226164,0.04770155805687617
566,1456704117384366,0.023092117296631097,0.03777888726218246,0.0458633725077978
567,1456704117399455,0.023929401819234884,0.03575866568892148,0.04344111249926995
568,1456704117422489,0.026941496086458794,0.03445193912206667,0.03951861426915072
569,1456704117443471,0.03168203944644722,0.03366839435514479,0.03386167066319742
570,1456704117459466,0.03706383424573832,0.03334693461021469,0.027523429474256275
571,1456704117483466,0.04176636847362593,0.033638923945983015,0.02295280765082695
572,1456704117507692,0.04477466540157174,0.03471547390765622,0.02341360433296126
573,1456704117519694,0.04582253122043961,0.036528785167195564,0.03182116418870122
574,1456704117542694,0.04550110355570977,0.03874813918890008,0.04939929729196784
575,1456704117563696,0.044932012424346496,0.04087089850770191,0.07470957265025736
576,1456704117579698,0.04514581524020499,0.04234853545421876,0.10353127555211646
577,1456704117602328,0.046510014149050295,0.04263276970063582,0.12978650085498653
578,1456704117625329,0.04855738192616497,0.04124352240374733,0.1473152529742193
579,1456704117647330,0.05032540979354544,0.03806630782586557,0.15196978733970892
580,1456704117662368,0.05097959576400391,0.03395023069053064,0.1433508488148501
581,1456704117686316,0.05031941137289338,0.03134440903583407,0.12557284950422842
582,1456704117700317,0.04889488342543419,0.034424597415222295,0.10664325251199244
583,1456704117722561,0.047750429222882,0.04820351410242878,0.09635252981573994
584,1456704117745563,0.048002988636752696,0.07657715717143708,0.10307776815591813
585,1456704117759563,0.05047760163099956,0.11994378977566651,0.13054811187219487
586,1456704117782565,0.05555358706276908,0.17358615368840088,0.1759972157305748
587,1456704117805952,0.06325208647349509,0.2280614360340245,0.23073889604718933
588,1456704117819953,0.07342737760694963,0.272127464341228,0.28304987846829044
589,1456704117842956,0.08583987623024622,0.2973415939164628,0.32205722143840876
590,1456704117865956,0.10001683258043655,0.30211442638500163,0.34094552431996283
591,1456704117879957,0.1150383082823725,0.29272539816875737,0.33835083949517053
592,1456704117903075,0.12946733165441313,0.2801889666211381,0.31777143363720006
593,1456704117926076,0.1415159076757882,0.27434883970898977,0.2856420680205536
594,1456704117947078,0.1494041080589121,0.27854389172168365,0.24903899590907852
595,1456704117963079,0.15185464278049926,0.2880267433392741,0.21376654120927466
596,1456704117986103,0.1486261649988187,0.2929442885114022,0.18319305283980467
597,1456704118007393,0.1408083146800501,0.28382738548570197,0.15798711504069374
598,1456704118023399,0.1305177789821895,0.2562653013763682,0.13674117027436916
599,1456704118046339,0.11997048826920015,0.21248325229914847,0.11720310164559482
600,1456704118066348,0.11047923411876678,0.15978735414087822,0.09761939791096394
601,1456704118083394,0.10210189267947527,0.10745265651620761,0.0776898048333743
602,1456704118106327,0.09416856434008675,0.06373279314760454,0.05881568837749939
603,1456704118127395,0.08623833356124197,0.03387831575133609,0.043614677888922
604,1456704118143102,0.07878656342170269,0.019362449271357364,0.03496995948350982
605,1456704118166103,0.07317121034947137,0.01821011141447575,0.03502446355836004
606,1456704118187357,0.07089669082908757,0.026152460128892503,0.04444517942749821
607,1456704118202506,0.07262719543653641,0.03815712829576129,0.062097713098135325
608,1456704118225507,0.07755145785230874,0.04982095423121013,0.0851697565095724
609,1456704118246509,0.08345817025287608,0.05823371118217786,0.10976744662277016
610,1456704118262509,0.08747918686925388,0.06217050619307621,0.13190966819300887
611,1456704118286304,0.08719584478463842,0.06174391362228726,0.14860132184957536
612,1456704118306967,0.0816916293599196,0.057846605148845445,0.15848907380204297
613,1456704118322739,0.07208929133804985,0.05173278426333955,0.16175496127287733
614,1456704118344740,0.06123417457741712,0.044882503025305415,0.1593769059536156
615,1456704118367048,0.05256498512876418,0.03901172731051217,0.1523439699591533
616,1456704118382742,0.04866684528011899,0.03596577533993092,0.14143623242035813
617,1456704118411883,0.050228250014745394,0.03734710788525697,0.1276653775387662
618,1456704118426877,0.055965138194026716,0.04395183135900136,0.11285234128669372
619,1456704118442877,0.06356533297109547,0.055252335788557164,0.09966747967935143
620,1456704118464879,0.07106891517583158,0.0692058156888511,0.09088579540016618
621,1456704118486885,0.07776371838643097,0.0826043825138923,0.08821741003775851
622,1456704118502891,0.08401245344069995,0.09199850513698357,0.09143261639532245
623,1456704118524892,0.09027847676277458,0.09492565329910306,0.09843026044323606
624,1456704118547894,0.09626521962942158,0.09091585914517504,0.10640509146202562
625,1456704118562894,0.10093556642923984,0.08176560838694713,0.11353662718802396
626,1456704118586091,0.10337398472523777,0.07091907790825974,0.12009872055928963
627,1456704118608079,0.10371579631822295,0.06222644913434546,0.12810345287984257
628,1456704118623067,0.10330952312262225,0.05858635046286842,0.1395830992508528
629,1456704118645095,0.10390720024068463,0.06097006733392866,0.1546573179920944
630,1456704118667874,0.10646101029776492,0.06815242317042951,0.17074752565410783
631,1456704118682875,0.11043734798313914,0.07719911234664323,0.18350277655811786
632,1456704118704669,0.11418535093464281,0.08448296867936057,0.18883179543294326
633,1456704118727671,0.11607305139761483,0.08687060895034145,0.1847699534192428
634,1456704118742672,0.11548091599454234,0.0827410192189366,0.17219222900814993
635,1456704118764674,0.11287502671432222,0.0725456361173977,0.15427895321189083
636,1456704118787962,0.10897539534007192,0.05870549347443242,0.13532364552607656
637,1456704118803445,0.10379619425275273,0.04487081586866876,0.1194830010459357
638,1456704118824277,0.09644230489612912,0.034839601300904986,0.109747176296281
639,1456704118847278,0.08595110663972559,0.03150981931636002,0.10725989817435173
640,1456704118862442,0.07262970579176532,0.03612340331381268,0.11114469319618223
641,1456704118892290,0.05887653551989223,0.047941999459986485,0.11893717516008441
642,1456704118907797,0.04875622686369181,0.06442696344290946,0.12753162275675303
643,1456704118922798,0.046404397743340035,0.08188890695771067,0.13433268881840507
644,1456704118944800,0.054054698471368595,0.09642366466730365,0.13817708347546406
645,1456704118968801,0.07067349935211582,0.10485712109835918,0.13965127886974962
646,1456704118982800,0.09189700861847423,0.1054424430180304,0.14064006282305036
647,1456704119004866,0.11141039048818031,0.09819279980419625,0.1431764933643519
648,1456704119033837,0.12325331044758256,0.0849109222626664,0.14796560617168014
649,1456704119049034,0.124029430024978,0.06900953038817187,0.15334283399455864
650,1456704119065076,0.1139886989812902,0.05503092163224878,0.15552045252386168
651,1456704119088286,0.09653988782391977,0.04763967119185008,0.15032269845734544
652,1456704119109552,0.07657650601654482,0.050112184826613046,0.13550508851523502
653,1456704119124552,0.05853524621581465,0.06285846404605322,0.11219252747212971
654,1456704119148555,0.045077782892267174,0.08278141348531742,0.08456732987161683
655,1456704119170554,0.036800817886189455,0.10401716331328958,0.05817798629244499
656,1456704119184554,0.032796362697730286,0.11996850548691863,0.03804716364439059
657,1456704119208256,0.03157447679073259,0.12587631596394253,0.027586623615665218
658,1456704119228990,0.031929631711072604,0.12078007799233519,0.02850956562942806
659,1456704119245251,0.033556650070791866,0.10787076814308084,0.041190392025176076
660,1456704119269261,0.03733266016946056,0.09298196394977695,0.06477321211759882
661,1456704119289212,0.045149519228798764,0.08193107284689763,0.09679676276080278
662,1456704119304223,0.059184175606664266,0.07804612521385064,0.13277491355834264
663,1456704119328334,0.08070107652061573,0.0811126004518821,0.16651953728865287
664,1456704119349227,0.10885996448851026,0.08815456816290512,0.19171554554594508
665,1456704119365228,0.14024289231073045,0.09537581022840723,0.2044659105640215
666,1456704119388171,0.16956202961874123,0.09996514038329983,0.2056842141168633
667,1456704119408883,0.1913172767693173,0.10078618609844366,0.2018667478554552
668,1456704119424668,0.20156186517177005,0.0979273928706336,0.20324032646494902
669,1456704119447670,0.1989013950952413,0.09185690015429805,0.21950436540313703
670,1456704119468677,0.18441442608838288,0.0829586229615038,0.25487241190686405
671,1456704119484672,0.16089721473014446,0.07168341350805989,0.30496557782978545
672,1456704119507407,0.13212523435785375,0.0589903406147876,0.3575098225211937
673,1456704119530409,0.10244894652178775,0.04657455410629835,0.3968314843881988
674,1456704119544410,0.07643336407684183,0.03659178085761981,0.41001627104503
675,1456704119567410,0.05812561502466337,0.03095992000377332,0.3917393689524429
676,1456704119591342,0.050003448859645874,0.030593992079706922,0.3457312940596329
677,1456704119605075,0.052115440243748236,0.03498380818578954,0.2828036854332192
678,1456704119628079,0.06191150106134061,0.04236519331968347,0.21686702664034868
679,1456704119650862,0.07494040263410151,0.05045362871002659,0.16065996588030357
680,1456704119664862,0.08625764794336722,0.057425854456762494,0.12243642081614374
681,1456704119688153,0.09207525377573277,0.06269986745389844,0.10440975505974928
682,1456704119711163,0.09095684354534044,0.06716616244134041,0.1033856040859714
683,1456704119726164,0.0840093704504078,0.07277868718341685,0.11328775592363007
684,1456704119748166,0.07410257791976234,0.08165537243389608,0.12830032456247759
685,1456704119771167,0.06467656864943569,0.0950005082947978,0.1449469077119141
686,1456704119792251,0.05871640224215913,0.11226272388239225,0.16216464234485883
687,1456704119807753,0.05811568553525293,0.1309428947836737,0.17980436363807328
688,1456704119830755,0.06336804729312569,0.14726513327914498,0.19690573384349408
689,1456704119844756,0.0735061100107353,0.15751112519178498,0.21094746897343175
690,1456704119868756,0.08631188887522513,0.1594128687118939,0.2183644574600592
691,1456704119890762,0.09885655869025892,0.15293650957638477,0.2157763051103646
692,1456704119904775,0.10830930111513311,0.14015564648718473,0.2011867261252141
693,1456704119927776,0.11274739833921739,0.12439357401389715,0.1747783283305638
694,1456704119950777,0.11159919761093653,0.10905872602611931,0.13925665782073615
695,1456704119971779,0.10552578486544409,0.09659582728029208,0.09968831024694866
696,1456704119995986,0.09590956315083435,0.08790313993420079,0.06270033301980152
697,1456704120011252,0.08435297187578382,0.08241893247591738,0.03508025956055096
698,1456704120032244,0.07246158465958492,0.07876695965255724,0.022132118948961114
699,1456704120048002,0.06181612654105375,0.07553489564510338,0.026296490258517588
700,1456704120071249,0.05382952255125215,0.07174228004131938,0.04645149276109616
701,1456704120092316,0.04936748972564031,0.06686449891632634,0.07811821883411155
702,1456704120108166,0.04835720819525252,0.0606338016877304,0.11458246500306697
703,1456704120130938,0.04972542750443811,0.05294874117430713,0.14866308755387153
704,1456704120151981,0.051787418637067366,0.04402768773625491,0.17452202657384522
705,1456704120167940,0.05287793675608187,0.034638253408701365,0.18877155602990373
706,1456704120191380,0.05186519026795561,0.02611362845006131,0.19047051410034796
707,1456704120212400,0.048323763305746906,0.020025866852542682,0.1802911045411599
708,1456704120227399,0.04240922650991208,0.017643238296924567,0.15962024646639666
709,1456704120249243,0.03462728545075696,0.019430138179904455,0.1302024991285288
710,1456704120272355,0.025643224710606163,0.024803942444540334,0.09432293408559793
711,1456704120287392,0.016160984961007905,0.032230429239796306,0.055055822095425866
