,timestamp,x,y,z,w
0,1456704106043305,0.01649821550630715,0.012564990166973128,0.06289646953970784,0.052353287838752094
1,1456704106066306,0.019928984134555027,0.015328255496061895,0.060928238621099653,0.047775560877506354
2,1456704106082315,0.02382540991592261,0.017356509283787118,0.05790794751213312,0.04392043893082676
3,1456704106103318,0.02844359676057806,0.018170055793520712,0.05305538269493306,0.041188267810078505
4,1456704106127529,0.033678325723182266,0.017729962551843288,0.04619886063626883,0.03956433522740856
5,1456704106142326,0.03905733998911237,0.016491223245132483,0.037957184147714054,0.03867091967712916
6,1456704106163322,0.04387013065922254,0.015251258799027516,0.02970106561053711,0.038040492651201685
7,1456704106187338,0.04737182262123305,0.014824633667387255,0.02324472380045802,0.03747794053856894
8,1456704106218355,0.04898747028343901,0.015685845194922086,0.020346528542946524,0.03730125012345003
9,1456704106219350,0.04847234172333814,0.01775735309120552,0.02219588783154116,0.03832171763830914
10,1456704106240353,0.04599327177371565,0.02045151375175566,0.029065379232322688,0.0415540622323971
11,1456704106269352,0.04208362767888011,0.022942858634476433,0.040231008326762775,0.04774969887368173
12,1456704106279367,0.03746842682880088,0.024525623888421957,0.054160112237152516,0.05692578642652618
13,1456704106309583,0.032847909342934065,0.024876438907652922,0.06887689040062064,0.06809978798952573
14,1456704106336584,0.028758672296017376,0.024117505173282885,0.08237638915449023,0.07938316045626603
15,1456704106360586,0.02556351810326916,0.022699621170670765,0.09298223998127977,0.08844580440568323
16,1456704106361749,0.023524417358375342,0.021203113032995848,0.09959613305373752,0.09320080722415372
17,1456704106380593,0.022856168816390746,0.02015106067822083,0.10181923403354252,0.09244938501957159
18,1456704106405775,0.02366575087630841,0.019879570705673078,0.09993025220205498,0.08622386214318935
19,1456704106420773,0.025759420487033217,0.020468387284774528,0.09471241095294751,0.07568498220648265
20,1456704106439826,0.028425097978767234,0.021726036803172123,0.08715873906418883,0.0626262598570158
21,1456704106464769,0.030399566373506957,0.0232366885184775,0.07814792848699931,0.0488290295614142
22,1456704106480644,0.03021686401285263,0.024482856931609332,0.06823310773418134,0.03560372647697014
23,1456704106500856,0.026970572096795358,0.02503365100763347,0.05766586372630897,0.023786768295488724
24,1456704106516857,0.021265731528154627,0.024735728041357156,0.046659835923282586,0.014236211132967363
25,1456704106539859,0.015900259454611546,0.02380919052510573,0.03573918391107011,0.008540559106271967
26,1456704106560859,0.01573294100832835,0.022788118577586364,0.02594122816828593,0.009383482930311337
27,1456704106577386,0.0263922668319986,0.02234906027362795,0.018726275071093017,0.020035995225531386
28,1456704106599894,0.05199013106794364,0.023151044168679573,0.015625857442351003,0.04288931084749288
29,1456704106620117,0.09264397778159836,0.02577479295015676,0.01778455678025156,0.07759029216154001
30,1456704106636894,0.14301959852278534,0.030712011352771396,0.025546464187667806,0.1197986052352932
31,1456704106659896,0.19295760176068585,0.038254909865029836,0.03817320458523977,0.16153512707136505
32,1456704106680626,0.23045684439574837,0.04820644269798229,0.053766144588415166,0.19344995148498653
33,1456704106703263,0.24613870662467913,0.05954546358931075,0.06950751108557929,0.20832740720618
34,1456704106719975,0.23739445497805126,0.07033586482284909,0.0823126371112959,0.2042972679310503
35,1456704106739977,0.2102769686504692,0.07809148167351734,0.0897984219857706,0.18608847160613526
36,1456704106762979,0.1779865511606968,0.08054882592775331,0.09120904292343418,0.16341424013980932
37,1456704106780501,0.15623024308763386,0.07655904261999924,0.08782813841477952,0.14692276190053416
38,1456704106800294,0.15722163293980626,0.06672890746961892,0.08258662278332903,0.1434734091216777
39,1456704106825008,0.18487145210418532,0.05352886304443677,0.07895790319897372,0.15304624691735927
40,1456704106840009,0.23324050524211343,0.04078745438012262,0.0795828377883746,0.16889510195496188
41,1456704106862011,0.2887885856508638,0.032713452072004705,0.08518889854453135,0.18093099948606123
42,1456704106883839,0.335282076595687,0.032731216775826376,0.0942337091192942,0.18071357523711834
43,1456704106899831,0.3593155221312211,0.04245224708766472,0.10343018087160874,0.16567111287694927
44,1456704106920793,0.3545081067358781,0.061077197426732704,0.10901454130926881,0.14055410968787246
45,1456704106943829,0.3232045094928898,0.08543956026681829,0.10833877015513653,0.11542736744158037
46,1456704106959754,0.2754168187415618,0.11072771555783197,0.10116075612328836,0.10112839371935958
47,1456704106982158,0.2254744337002129,0.13168590711546416,0.09000996204957729,0.1043090732645744
48,1456704107003827,0.18739923994447857,0.1439308871723951,0.07933499520364581,0.12436211744152761
49,1456704107019824,0.17045735778624735,0.14502834006127496,0.0737053139602338,0.15362022752650586
50,1456704107041675,0.1764607901029155,0.13510097112752742,0.07585421992640055,0.18063725648717052
51,1456704107064671,0.199837177788949,0.11685937388103726,0.08549885510303208,0.19489682159804494
52,1456704107080192,0.23027752222680128,0.09500941632844975,0.09951055046498394,0.19071079644254077
53,1456704107102209,0.256614276393505,0.07508163795685928,0.11329013529449018,0.16868045014798586
54,1456704107123215,0.2702653488499947,0.06193567075731886,0.1225647569704036,0.13449444849502812
55,1456704107140212,0.267162296183816,0.058424019085682746,0.12470699507962506,0.09613602184265493
56,1456704107162213,0.24795876494323887,0.06471547431880283,0.1191346991105424,0.06104694058850411
57,1456704107183228,0.21694524496316722,0.07847248192718696,0.10696533622994792,0.034395766380740815
58,1456704107200234,0.18034291047008946,0.09566346422418678,0.09038636050522654,0.018764490931213604
59,1456704107222235,0.14460063405173104,0.1116049632089966,0.07206672812241133,0.014791738132382937
60,1456704107243236,0.11510190138255566,0.12195916233916357,0.05467694295946743,0.021950238358015444
61,1456704107260245,0.09542468173283822,0.12363655707638943,0.040488487004036545,0.03884886290372181
62,1456704107282759,0.0870798805154212,0.11560965663978402,0.031062450846280017,0.06304223661600931
63,1456704107303675,0.08955190751272687,0.09949432113337406,0.02705863175208168,0.09083533438895768
64,1456704107320675,0.10052964343699704,0.07958439689155349,0.02818466310021398,0.11761953801884338
65,1456704107342473,0.11638768474973113,0.06203930991227079,0.03331372048074886,0.1388669961808608
66,1456704107363469,0.13302740171015276,0.05319031789039138,0.040795076843309845,0.15135207847448653
67,1456704107380484,0.14694524851690458,0.057356895860824514,0.048922819360673914,0.15388745592442085
68,1456704107402407,0.15606309330622076,0.07494495331907838,0.05647083263785797,0.14713857394089788
69,1456704107423408,0.15986218371692013,0.10169037753880351,0.06318846013667694,0.1327778636906241
70,1456704107440410,0.15882092203701306,0.129580768926617,0.07011042343658991,0.11278297300658711
71,1456704107462354,0.1536495227345439,0.14934008457265072,0.07943715249793147,0.08951911440937807
72,1456704107483611,0.14485716566074905,0.15369053169071265,0.09375779026166417,0.06645326066058425
73,1456704107507194,0.13278712739932758,0.14021223947144026,0.11471482808364185,0.048636379712625806
74,1456704107522195,0.11787856913106205,0.11267043281653984,0.14172051022193097,0.04209390853320651
75,1456704107543496,0.1009180301403949,0.08017496618626523,0.1715559368983691,0.051964403598751666
76,1456704107560197,0.0832742364956878,0.054318087535491444,0.19927324640832475,0.0800785378128613
77,1456704107582467,0.06715424276424277,0.0452122384429879,0.22003337315551583,0.12314025031282594
78,1456704107603169,0.05569248700995814,0.0578141300695174,0.23097033955055007,0.17257207163045898
79,1456704107619941,0.05253928555706062,0.08990061700519857,0.23220837740651953,0.2165110052815481
80,1456704107641941,0.060832899726777974,0.132560573427977,0.22659613395661557,0.24355445109339982
81,1456704107662943,0.081868512432238,0.1731979226307799,0.21826567901126362,0.24691471313265578
82,1456704107680449,0.11405960863459104,0.2000131668815643,0.21063494773000854,0.22713949494727406
83,1456704107701965,0.15271423322064803,0.20614361973095463,0.20482310915346716,0.1920061144935126
84,1456704107722972,0.19078081007342568,0.19162878246173315,0.19935661663685,0.15353583094421208
85,1456704107739967,0.22034561256554872,0.16239256893029808,0.19133656615579211,0.12346226357961734
86,1456704107761970,0.23453481588627664,0.1270373089065804,0.17829297060160118,0.10904109513386774
87,1456704107783671,0.22944556394945007,0.09334689377918609,0.15954226801710616,0.11073362230516139
88,1456704107800396,0.20554697497066166,0.06619488537059987,0.13635924922595238,0.12253488583861133
89,1456704107824187,0.1678899843445848,0.04733703981189735,0.11119957246153978,0.13480617378927354
90,1456704107843487,0.12484597420819127,0.03640312682854846,0.08675677610425686,0.13845763763947885
91,1456704107860190,0.08574616262443703,0.032058168075592704,0.06545745938346638,0.12863659730609028
92,1456704107882507,0.05819377550100862,0.032707234405969336,0.04941300979306489,0.1063270152079492
93,1456704107903697,0.04588741348751307,0.03671371345284228,0.0404306716648619,0.077426033121757
94,1456704107934762,0.04770026298648097,0.042423847579364356,0.03974023393125017,0.05010939891772362
95,1456704107942471,0.058453332560006004,0.04824672259362701,0.04747345636025255,0.03183713102841134
96,1456704107965472,0.07120047592214872,0.05283218151777723,0.062273180352701345,0.027115365278789636
97,1456704107986499,0.08011141030470963,0.0552563849697282,0.08142643193648635,0.03655942373459295
98,1456704108002691,0.08264818053819287,0.05513144499173398,0.10159011954430079,0.057264824469845
99,1456704108025691,0.08003140496422458,0.05261466119426362,0.11974034708172888,0.0840983490762641
100,1456704108046511,0.07589429141116615,0.04832288119360748,0.13377344161519528,0.11130315951956096
101,1456704108070511,0.07397515927392678,0.043159919641039414,0.14244190116506106,0.13384297195358216
102,1456704108085763,0.07610287762705789,0.03807207318845642,0.14488328077332052,0.14819425982940584
103,1456704108106841,0.08140206861498286,0.03377345995045082,0.14041184302190002,0.15264845171741223
104,1456704108121842,0.08690518942999294,0.03052371524892507,0.12905339034419544,0.14735740202730374
105,1456704108145844,0.08909832914429092,0.028060767301676587,0.11258018739413465,0.13426176414578783
106,1456704108166105,0.08562687398610047,0.02574970430647046,0.0951519853438767,0.1168237118948594
107,1456704108182563,0.07643335882138169,0.022915360718894117,0.08271059460355537,0.0993750516923525
108,1456704108212069,0.06388457272244079,0.019235598312555564,0.08105202543025566,0.08604537777089362
109,1456704108226103,0.051879472847861374,0.015028673424031488,0.09343522270616869,0.07958899011877589
110,1456704108242069,0.04435840345192681,0.011295842290854514,0.11899095604704496,0.08067569404953344
111,1456704108265071,0.04384227747283471,0.00947654423489268,0.1527968400409755,0.08804647330326058
112,1456704108286082,0.05053025039670602,0.01098809700483383,0.18757245564370936,0.09942105709271437
113,1456704108302120,0.06220040429513559,0.01669866818462068,0.21612074114649055,0.11259115966254553
114,1456704108325119,0.07488995386412861,0.026508996736604368,0.2333915535557705,0.12607765707602336
115,1456704108349120,0.08416496900777858,0.039200129646827904,0.2374365987333147,0.13905659914993346
116,1456704108362330,0.08664731644624965,0.05263235615247219,0.22919536987534048,0.15072785127770305
117,1456704108385501,0.08129466363243291,0.06426129819268322,0.2115386968700777,0.15966056170386542
118,1456704108406274,0.06988702331631655,0.07181791804129835,0.18811573394110676,0.1637009043016903
119,1456704108421999,0.05645583420491732,0.07393227785730556,0.16242103151599357,0.16067331127774076
120,1456704108447002,0.04588521840323185,0.07048693076026266,0.1372871371259198,0.149510685652639
121,1456704108466009,0.042261488090930194,0.06256886847150869,0.11478474204762061,0.1310564085725999
122,1456704108489771,0.04755870586664678,0.05204329653618727,0.09633472198801027,0.10796376115574285
123,1456704108505778,0.061046491396576565,0.04094070338743012,0.0828042500923261,0.08375051516367622
124,1456704108526116,0.07955902007509955,0.030922036060264318,0.07450044857427099,0.061602033299510625
125,1456704108542780,0.0985006723792332,0.023005954282850374,0.07114771545191499,0.04355384146715337
126,1456704108564784,0.11320191212635478,0.017576422366973307,0.07195262519934131,0.030327582193709436
127,1456704108586575,0.12013207114202604,0.014568167995561522,0.07574058266247727,0.021721383614944745
128,1456704108601870,0.11765308492530867,0.013707936895490875,0.08110372940111843,0.017289855684199218
129,1456704108624871,0.10630083018426441,0.014726892167349476,0.08660709021189655,0.017035237816617817
130,1456704108645874,0.08869683192526598,0.01749534264568588,0.09115696846433564,0.021841807539195752
131,1456704108661874,0.06907601851591502,0.02205024896400084,0.09446953102344612,0.03341343681547488
132,1456704108685724,0.05233397719588075,0.028503140765613465,0.09733049196570207,0.05359934351367955
133,1456704108706179,0.04265504037755705,0.03685115494800837,0.10130613051609817,0.08323799429598444
134,1456704108721912,0.042090262331243494,0.04676787340617608,0.10785817253110196,0.12092504067930673
135,1456704108745914,0.049663669729342406,0.05748168367368369,0.11723713398436447,0.16227363584693685
136,1456704108766915,0.06151103852251693,0.06781143713678221,0.12777069617176567,0.200170817574965
137,1456704108782654,0.07217563475790399,0.07634574948878577,0.13605194290604958,0.22623091834204673
138,1456704108805381,0.07665110528869637,0.08170177113371939,0.13812595165162295,0.23320096931479609
139,1456704108826371,0.07234714630954381,0.08281771574940754,0.13127253460131735,0.2176275128349123
140,1456704108842154,0.06012368106905681,0.07927383952115138,0.11561277108985822,0.181818524619795
141,1456704108865160,0.04396702256411231,0.07163134196128766,0.0947245506902708,0.13420493311054366
142,1456704108894547,0.029534887186064743,0.06171275344610437,0.07482453677720943,0.08767922552278058
143,1456704108902243,0.02226625872397533,0.052664502621776,0.06272081838203852,0.05618391706681471
144,1456704108925245,0.025791672108073725,0.048606354954905506,0.06332306260766186,0.05045202662679914
145,1456704108947247,0.04109918196342058,0.05373214625765475,0.07770183875613695,0.07419005456303475
146,1456704108962246,0.06656912794378633,0.07090271027457365,0.10244849446254556,0.12207623358803107
147,1456704108985484,0.09870072695024716,0.10006166067699973,0.1305817619089111,0.18062152574705928
148,1456704109007688,0.13311254525986074,0.13714181990710134,0.15371114021914709,0.2320887534300576
149,1456704109022694,0.16531851119397747,0.17429183773591414,0.1647434964647889,0.2603992922474582
150,1456704109046473,0.19106260071745737,0.2019093759159495,0.16019791647696363,0.25682908822597045
151,1456704109067687,0.20652529489219934,0.21203866841037147,0.14127050557011833,0.2230682161151064
152,1456704109084199,0.20890722841552695,0.20166710710350708,0.11321894792782208,0.17024950207725442
153,1456704109105492,0.19738252768351897,0.17415678084605465,0.08332102801148872,0.11440399295769513
154,1456704109127493,0.17376104816484583,0.13789923550232921,0.05829248408284327,0.07045081764444794
155,1456704109144494,0.1422562537390604,0.102828769339359,0.04223885213020042,0.04732609661375841
156,1456704109165496,0.10841853782138963,0.07660840796027145,0.035842540424581376,0.04600049951330497
157,1456704109187680,0.07773112185895069,0.062310129207618914,0.03684636708369539,0.0606082919161307
158,1456704109208732,0.05430750811242895,0.058365222241345036,0.04139426223743881,0.08165056176888065
159,1456704109225734,0.039999443935998774,0.06030210560062053,0.045597859001353186,0.09972104262215857
160,1456704109246737,0.034207407050142115,0.06309765856568217,0.046765452960478175,0.10838197969131813
161,1456704109267744,0.034533608284849075,0.06304539331529896,0.0439643781741026,0.10544211111149811
162,1456704109285263,0.03803425308478056,0.05859355280938315,0.037891509712423506,0.09264314999358057
163,1456704109306755,0.042467667027891697,0.050196171021757996,0.030277282542751027,0.07428726826634453
164,1456704109328754,0.04690475851886337,0.039567923875510225,0.02314508417601389,0.05547106701851925
165,1456704109345600,0.05145242734016119,0.028793155406380187,0.01818053136470382,0.04047582571279196
166,1456704109366602,0.0564051407144663,0.019615364307739268,0.016326210750981476,0.03170072597482737
167,1456704109388424,0.061475187750387295,0.013052130710480982,0.017618645675929065,0.029351588868819
168,1456704109404958,0.0656240912953889,0.009327649293466326,0.02125715899949513,0.031870095868158574
169,1456704109426939,0.06756157667619532,0.00802982894568983,0.02588380653469112,0.036839887900411136
170,1456704109455941,0.06652772078619,0.008378794548617414,0.03000552526243403,0.041951951151287754
171,1456704109464976,0.06280724881024054,0.00950972390855698,0.03242714892029062,0.045655350893769917
172,1456704109487451,0.057634830307246435,0.010699353611697812,0.03255623414471211,0.047339729199662076
173,1456704109507961,0.05257189667744746,0.011495945877967324,0.030503482175609647,0.04713327438646001
174,1456704109525204,0.04874739106597245,0.011747143837053057,0.026977592181637196,0.04551121328818943
175,1456704109547174,0.046377798739507946,0.0115482948316525,0.02301556087990561,0.042912717995915915
176,1456704109567965,0.04479227344547064,0.011144453915862027,0.019617477811689668,0.03953628395008604
177,1456704109585666,0.04292492086096764,0.010817952155630193,0.017395469598510974,0.035403975859724386
178,1456704109606973,0.039991352179200614,0.010791818373389186,0.01637520090966343,0.03062110934057447
179,1456704109628975,0.03596014324368127,0.011175862156927664,0.01605555857793423,0.025616620198214604
180,1456704109644976,0.03156035423355854,0.011966093280362423,0.01572802973234631,0.0211729911496089
181,1456704109666976,0.02786464196694654,0.013080563054796055,0.014929677681133933,0.0182294283490119
182,1456704109688278,0.025740314172664917,0.014396478864304313,0.013822006027095093,0.01761063827691523
183,1456704109707287,0.02549647304737651,0.015763649136286105,0.013300965452416049,0.019857293259100017
184,1456704109733555,0.0268777816788518,0.01700023892777686,0.01475032876336803,0.025208738239925168
185,1456704109748295,0.029315884193877543,0.01789997253442823,0.019500215311302437,0.03363220785461712
186,1456704109765291,0.03221915917908937,0.01827383309906535,0.028179160906828968,0.04474403380191189
187,1456704109787661,0.035134034903076934,0.018017317409326786,0.040211749712890786,0.05758433866911982
188,1456704109810234,0.03777741326439838,0.01716315446771441,0.053699226822967135,0.07041525954539693
189,1456704109825235,0.040057546073794525,0.015880010470008695,0.06581914894766538,0.0808356734173038
190,1456704109847237,0.042159155301308385,0.01441568529611575,0.07369877053178274,0.08639551083042721
191,1456704109876534,0.044622871530266395,0.013029670166510406,0.07550307645252266,0.08559066529235757
192,1456704109885035,0.04825900614707373,0.01197671737717764,0.07132400774819787,0.07883288372360923
193,1456704109906551,0.053799552968043625,0.011571325649941998,0.06346290691705395,0.06890326111297125
194,1456704109929552,0.06136914734210211,0.012290722873649549,0.05590155571772664,0.06054044093285086
195,1456704109945554,0.07002971380513083,0.014799721398658126,0.053074625795860586,0.0591007315726985
196,1456704109966553,0.0777245033686054,0.019771448307163767,0.058322846774514187,0.06858321097158905
197,1456704109990061,0.08184325931914019,0.027485473449359005,0.07251622305043896,0.0896828227699012
198,1456704110005576,0.08032165477043363,0.03737386830411713,0.09332473742845508,0.11876634447694838
199,1456704110026577,0.0727960092882384,0.04781905148643004,0.11553678644280503,0.14850831407562098
200,1456704110049578,0.061150551596505134,0.056449995235296445,0.13259217890612973,0.17026441731800537
201,1456704110065580,0.04903460712916981,0.06093378294008093,0.13897883634176572,0.17736081557065256
202,1456704110087640,0.04047765033747445,0.05996358647416875,0.13252568528447778,0.16787794187464405
203,1456704110109794,0.03823367369816003,0.05399029507972007,0.11542883671243438,0.145630543261139
204,1456704110125796,0.042639546701354974,0.04533814209161063,0.09339477467290642,0.11886561030662193
205,1456704110146799,0.0515081461324828,0.03762798076922303,0.0732724255945357,0.09723838912592725
206,1456704110169058,0.06106586407923356,0.03471684171031172,0.06032067170291784,0.08831054747915751
207,1456704110191230,0.0674904476884095,0.0394885581437047,0.05637435800075705,0.09489021154994844
208,1456704110206525,0.06843697841071321,0.05281202443921771,0.05963886832453328,0.11413192544806894
209,1456704110228739,0.0640155288664134,0.07295342756379146,0.0660113914491805,0.13866861518072482
210,1456704110251742,0.056833539039785955,0.09572584125038347,0.07115035255653569,0.15932933851086428
211,1456704110266528,0.050963352831583215,0.11554902244748233,0.0722967235622304,0.1684256928217046
212,1456704110289619,0.05015580220687097,0.12724922047620832,0.06910232906088448,0.16240845342512164
213,1456704110311403,0.0560955147842437,0.12795960723305158,0.06324505898286742,0.14294859525390807
214,1456704110326404,0.06756176690486414,0.1182181996765404,0.05717690370387028,0.11605189180361092
215,1456704110349121,0.0809041034843508,0.10162283996046209,0.052729375393818154,0.08955071542380016
216,1456704110371406,0.0915786635362141,0.08317194864090305,0.05029603190607476,0.07002486172052512
217,1456704110386147,0.09599478619690271,0.06719334574366854,0.04891900472074211,0.06049308308737251
218,1456704110409164,0.09280241424952936,0.055932160000179865,0.04707766255362894,0.059822045582463915
219,1456704110433160,0.08308281310593917,0.04933023129892384,0.04363601167176624,0.06391221417156191
220,1456704110447162,0.06953576291352778,0.045777797108233674,0.038422069013028505,0.06786403270211638
221,1456704110469445,0.05526000888345678,0.04320826172537547,0.032222182920628534,0.06798722994073571
222,1456704110491735,0.042761360433317935,0.03998275689794033,0.02633164551886404,0.0628394592616211
223,1456704110506252,0.033489763198105454,0.035333628308746395,0.02197433179412956,0.05316111485085875
224,1456704110529084,0.02784817076309133,0.02940196838775137,0.019851440617909756,0.041096491046885134
225,1456704110550972,0.025449401838244994,0.02299858320620047,0.019938977296036508,0.02920630004894054
226,1456704110565966,0.02542231930361792,0.017215699980204422,0.0215475669864598,0.01962883434501926
227,1456704110589477,0.02667892165286547,0.013014990681975537,0.023600247939146377,0.013571438126928022
228,1456704110611495,0.028137605033163777,0.01091955789353572,0.025037065718124082,0.011184936638388938
229,1456704110626495,0.02891057847776093,0.01089871571735696,0.02520933019699226,0.011770026622633723
230,1456704110649497,0.028441754099883042,0.012451755563498743,0.02411513620462545,0.014190359007814367
231,1456704110671637,0.026574981418419276,0.014818675650030776,0.022387477250435824,0.01733503587985216
232,1456704110686446,0.023545501557560595,0.01721697187805403,0.021056916177576337,0.020474225287625197
233,1456704110710686,0.019898166602804548,0.019025702976629963,0.021198996377688285,0.02338884305510867
234,1456704110731446,0.01634149817334939,0.01988118693307961,0.02359487048935731,0.02624490319288331
235,1456704110746448,0.01356279855777748,0.019687375668183633,0.028502444241575588,0.0292997398566821
236,1456704110769627,0.012055121053872653,0.01856901282603683,0.035588147383793185,0.032600046700662015
237,1456704110791598,0.012016885868832412,0.016802348728765185,0.04401104381370963,0.035815302551478224
238,1456704110806634,0.013360933174415461,0.014746759572820107,0.05259565097211481,0.03827057371941836
239,1456704110828848,0.01581899514356101,0.012784417732110752,0.06001724721121245,0.03915849302074025
240,1456704110851667,0.01907733109148406,0.011268919223454282,0.0649658794058042,0.03785474324851264
241,1456704110865639,0.022863989534969247,0.010487632889229718,0.06631289148318505,0.03423539294787247
242,1456704110889699,0.026943390268261275,0.010646983341749737,0.06332646676227188,0.028891613726584733
243,1456704110910747,0.03103561995275675,0.011887791614931352,0.05595078502013618,0.02315956605836452
244,1456704110925748,0.03472270713400763,0.014325854871047138,0.04509223850393133,0.018936044387105673
245,1456704110948742,0.03741119142481287,0.018093246499203658,0.032784207939825956,0.018323419804415545
246,1456704110970956,0.038399008494464024,0.023341323647364357,0.022075804129561394,0.023200518345225303
247,1456704110988523,0.03705837527102021,0.030173619288427083,0.016544182009945087,0.03480921184734976
248,1456704111009214,0.03310030203868078,0.03850862415107153,0.019462863932986723,0.053396342339932505
249,1456704111030987,0.026842221467724223,0.04791534267622543,0.03281890941558372,0.07792836051646504
250,1456704111047987,0.019376333518943602,0.05750123200655443,0.05647999187213388,0.10594722259774596
251,1456704111069297,0.012540691625189518,0.06594898456532862,0.08781435955687157,0.1337221765777729
252,1456704111091583,0.008626357022384887,0.07177945627583573,0.12197013089647261,0.15687797886759972
253,1456704111107602,0.00981595231387796,0.07384483589116037,0.15286585340266826,0.17156152205142036
254,1456704111128887,0.01744856020053738,0.07192984904713812,0.17474984128340249,0.17592814506612808
255,1456704111151689,0.03132720951808087,0.06720398704793812,0.18395249361607266,0.17137772878743385
256,1456704111167663,0.049366641943483856,0.06221278289039269,0.18023614231478252,0.16276938172804176
257,1456704111189896,0.06783911270705964,0.060214136871540064,0.16708637276047653,0.15706426849426502
258,1456704111211491,0.08228643118356281,0.06397633933846063,0.15056056991489494,0.16058588237868798
259,1456704111228191,0.08889408617495477,0.07452219419914015,0.13694639232516545,0.17602389221601478
260,1456704111249193,0.08588544400059984,0.09046123219304496,0.13020621434917792,0.2007588342225309
261,1456704111271406,0.07438783137754613,0.10830892179079459,0.1304603508233858,0.22753357279779352
262,1456704111288587,0.05831395876610775,0.12366458190723616,0.13425303675919079,0.24719450509694135
263,1456704111309344,0.04313267857001797,0.13268371937420648,0.13635842145812965,0.25211694557678177
264,1456704111331415,0.033901938600985115,0.13323754943875638,0.13214677397295713,0.23879258789094376
265,1456704111347134,0.033347096598066596,0.12546291360927164,0.1194594880307811,0.20877957309660064
266,1456704111369136,0.04081186125448576,0.11175402735076889,0.09936252334118623,0.16805390983045004
267,1456704111391375,0.052553845773724586,0.09635373373699467,0.07568238162937982,0.12522220209912513
268,1456704111414368,0.0633059611572519,0.0845695000732724,0.053640660784400544,0.08913012129672251
269,1456704111429368,0.06850502226661356,0.08151753331575945,0.038116480655203316,0.0664469875283995
270,1456704111451369,0.06627724250689096,0.0904374091666069,0.0320903741552405,0.0598980688160182
271,1456704111474608,0.058325558319782506,0.11103401001802561,0.035709492695619544,0.06774203894542437
272,1456704111489339,0.04931841502186011,0.13869109028843324,0.04622418539810726,0.08470097854360609
273,1456704111511551,0.045026062478015605,0.1653285627192049,0.05883716173148788,0.10398338034617484
274,1456704111534594,0.049963842322789526,0.181976713448394,0.06829181377857553,0.11959025079916598
275,1456704111549364,0.06547075692696244,0.1821470577351729,0.07077030832846805,0.12798441973539085
276,1456704111571355,0.0889628277855535,0.16443497149464317,0.06542049320136324,0.12852144764599696
277,1456704111594546,0.11467176894100296,0.13301828808919813,0.05480543576089578,0.12268666587066347
278,1456704111609618,0.1356446958385041,0.0958084872971523,0.043959924855066064,0.11278865952256956
279,1456704111631514,0.14625372649658513,0.061285353026983,0.03839450076271245,0.10088630749711612
280,1456704111654329,0.14415877645194405,0.0356168973055951,0.04189328441265518,0.08833107642025867
281,1456704111669294,0.1308833345429911,0.021230000728673537,0.05501507762139583,0.07582912242540367
282,1456704111691799,0.11087780774028504,0.017039856750136924,0.07485656220356957,0.06374520541290671
283,1456704111713605,0.08964724837465708,0.01977445139425644,0.09608925510265331,0.05241941857288293
284,1456704111728892,0.07179000223976797,0.02558626312625635,0.11278372082660901,0.04235044003166464
285,1456704111751644,0.05968424216851408,0.03133169571650073,0.12029551142600313,0.03418603603208893
286,1456704111773615,0.053228694088355594,0.035237067749323094,0.11658553019093774,0.028569752828656477
287,1456704111789133,0.05055630606268278,0.03694235081219505,0.10265424287611119,0.025970301151469054
288,1456704111811642,0.049213265909639814,0.03707351069629013,0.08208101490837152,0.02660713749468904
289,1456704111833930,0.04721225983800036,0.03658872444072145,0.05989030367625543,0.03047339427405838
290,1456704111848645,0.04360514842095047,0.036184420238491215,0.04112131523635283,0.03733617854050703
291,1456704111870653,0.03851434422692173,0.03599115311086688,0.02953435516409852,0.04661279493486522
292,1456704111894734,0.03276360126873951,0.035630560420246954,0.02681327542884907,0.057194712126617926
293,1456704111910735,0.027358834804628834,0.03452425289228455,0.03244384895915117,0.06743065462847118
294,1456704111930738,0.023069251922644564,0.032250640505892124,0.044219439226291006,0.07541243800866125
295,1456704111954738,0.020233500018345087,0.028776875612241095,0.059110801324961035,0.0794857715072676
296,1456704111970739,0.018764323772992027,0.024500750143691474,0.07412559806214593,0.078737810569987
297,1456704111991262,0.0182709936899023,0.020137031884120624,0.0868514285461157,0.07322631636503679
298,1456704112014779,0.018246401203413094,0.016524856444784186,0.09559449717114764,0.06387899162749727
299,1456704112030779,0.01827020586007927,0.014425239267939925,0.09925873162028026,0.05217834585112864
300,1456704112050788,0.018141956014196582,0.014355304557741439,0.09722094876893937,0.0398357030266286
301,1456704112074782,0.017869022808176756,0.016489731979298275,0.08939882888825554,0.02859575549153042
302,1456704112090094,0.01753648355153233,0.02064648934598829,0.07653162839390881,0.020157116225180974
303,1456704112111627,0.01718796555116127,0.0263528097789494,0.06050682464007127,0.016082462239205855
304,1456704112134660,0.016835050914899806,0.03296183370344572,0.04446909162304471,0.01759855332113328
305,1456704112150587,0.01659531180294557,0.039776221546261814,0.03248683886678842,0.02530837800033651
306,1456704112170593,0.016843214996266453,0.04614281805024691,0.028714743510418687,0.03893350346649097
307,1456704112193918,0.01823519904545671,0.051505066891804153,0.03622044910816221,0.05720510592072546
308,1456704112210925,0.021547476686891075,0.05542153617151616,0.055840889785259605,0.07795772104904447
309,1456704112231949,0.027380516148801166,0.05757253662579093,0.08549660357496425,0.0984230915141414
310,1456704112253969,0.03586093135402524,0.057785874678395924,0.12028742196662426,0.11570847803738561
311,1456704112270962,0.046468352652902306,0.0561153202107468,0.15347549065347876,0.1274454756578477
312,1456704112292438,0.058047128712005215,0.05298268878051926,0.17820877609166078,0.13254528821086575
313,1456704112313953,0.0689885077279981,0.04932910144678766,0.18958447703259576,0.13185487468997312
314,1456704112331125,0.07753633898566105,0.0466394315947774,0.18641664909716676,0.12833963340929272
315,1456704112351147,0.08216725429119846,0.046688205461262074,0.17194930858549987,0.1264050728685961
316,1456704112376227,0.08198495268289942,0.0509764509268001,0.15293953040576067,0.13028840200499606
317,1456704112391164,0.0770491209978494,0.06005041920478305,0.13716140457707965,0.14205109158294804
318,1456704112411619,0.0685556144276608,0.07305388372212365,0.13025217950397558,0.16019338110504158
319,1456704112434650,0.05878072665232472,0.08780292832023093,0.1333628242240145,0.1797911168878468
320,1456704112450647,0.050704067852411674,0.10139286074030686,0.14278834488708841,0.19424796351093113
321,1456704112471546,0.04730845682659258,0.1110574860126424,0.1517500292375436,0.19783889781708072
322,1456704112494483,0.05072745389299036,0.1149201414439056,0.15343846340894085,0.1878767944530126
323,1456704112510649,0.06152387013695382,0.11242483072173823,0.14390334311314712,0.1656544033481598
324,1456704112531615,0.07833560112616753,0.10444658410515312,0.12355734973829556,0.13589828608594315
325,1456704112554609,0.0980115742530833,0.09318814818756935,0.0967716461367294,0.10501739985058395
326,1456704112569498,0.1162900777743564,0.0819376798260777,0.06993405064424006,0.0788706119731199
327,1456704112591584,0.12898649583154811,0.07463927112144582,0.04898485933066834,0.060999881726439505
328,1456704112613612,0.1334352417421214,0.0751139785530299,0.037516554473263526,0.0520782672079131
329,1456704112629613,0.12962071333674552,0.08583127228567378,0.0360487214815669,0.05068844954702664
330,1456704112651628,0.12032546121409894,0.10648780463276525,0.04244202838319185,0.05480407887243673
331,1456704112673615,0.11000780192495863,0.1331189288903444,0.05300989245010931,0.06298926421664276
332,1456704112690363,0.10287896366913815,0.1585746268353431,0.06383635707166811,0.07462783117379769
333,1456704112711149,0.10119839190452624,0.1746221474855934,0.07191158401412398,0.08920666725264505
334,1456704112734165,0.10463773041779095,0.1749593394142368,0.07577382336253109,0.10528627610624
335,1456704112749868,0.11083353717355585,0.1577365181632581,0.07547567159901679,0.11996981100370858
336,1456704112770867,0.11661439044230706,0.12633476679404168,0.07199266679332425,0.1294163402496871
337,1456704112794594,0.11926794630016424,0.08806129025580259,0.06650162989359916,0.13034201639187665
338,1456704112809600,0.11742244683115552,0.051477024846868225,0.05995491068272179,0.12174746695143077
339,1456704112832600,0.11131432838147022,0.023613024290117725,0.053043039825995494,0.10577556292193967
340,1456704112854601,0.10239692735157034,0.008152741887000286,0.04632331840783764,0.08704262037977217
341,1456704112869603,0.09252279120287499,0.005034613076403887,0.0402744100831748,0.0707622451185982
342,1456704112893560,0.08313877371571853,0.011293421778761805,0.035231814671251624,0.0607081788287324
343,1456704112913953,0.07486564051451325,0.022581831572142025,0.03131331802890522,0.0580253160037751
344,1456704112937097,0.06756921105330131,0.03473513562121879,0.028431219305778695,0.06129283730719966
345,1456704112952837,0.060762719968045456,0.044873640393216514,0.026378642109779023,0.06757004602296135
346,1456704112974141,0.054036371369605145,0.05178600321716845,0.024916493383017893,0.07375702015979262
347,1456704112995883,0.04726811686346079,0.05563422883342287,0.02382870073526055,0.07760779144415507
348,1456704113012884,0.040593474255663176,0.05727061595581298,0.022969224729935372,0.0780789524290827
349,1456704113034221,0.03430222760760896,0.05754684288877385,0.02231015194706715,0.07512575367548492
350,1456704113057222,0.028813242721177974,0.056893664963656346,0.02195157909394626,0.06928997207424482
351,1456704113072887,0.02470929847203565,0.05524953624761901,0.02205349163696675,0.06137428085708334
352,1456704113094388,0.022698675910804142,0.0522542904630402,0.022708414588006792,0.05230165483570594
353,1456704113116596,0.023422706728064055,0.04756182946569568,0.023829741640765303,0.04309585078582162
354,1456704113132596,0.027165972055388756,0.041134392646400536,0.02512725277820345,0.034865897100839593
355,1456704113153603,0.033610874522079115,0.033417555023711215,0.02618458917836799,0.02871185901658201
356,1456704113177668,0.041767776363491375,0.025345497257316125,0.026597376314331508,0.025544858109169025
357,1456704113193109,0.0501361502910097,0.01818066947383441,0.026111188211530415,0.02588796861386759
358,1456704113214118,0.05704800517730104,0.013236411869173976,0.024710179747430616,0.029753692981277724
359,1456704113237422,0.061062910068725995,0.011561765250314085,0.022636105770373012,0.036660125959589056
360,1456704113253120,0.06128422411193178,0.013682540445111375,0.02035497853478035,0.04578053680866037
361,1456704113274128,0.05754401001484124,0.01947735153380201,0.018514062123195958,0.05616511288225989
362,1456704113296361,0.050467738127172194,0.02821563206567821,0.017916498003480615,0.06694480263045141
363,1456704113313363,0.041412948793810855,0.03872248592883752,0.019485341650221394,0.07742743933372759
364,1456704113336545,0.03223864788389823,0.04960181788917228,0.024144019231180636,0.08704642026492553
365,1456704113357364,0.024905990244554817,0.05945851309935142,0.032563719713318263,0.09522379758299813
366,1456704113373365,0.021018143124195334,0.06709314221259478,0.04482182357464552,0.1012964727700032
367,1456704113394373,0.021456437169445754,0.07166962040326584,0.060126147729090786,0.10464304372888611
368,1456704113416379,0.026209578545211498,0.0728610771361974,0.07681931440335511,0.10503451760636347
369,1456704113432380,0.03440294371771843,0.07096552473920409,0.092822566621543,0.10309346951888052
370,1456704113453386,0.04449412380329525,0.06696365317852203,0.10648247814122722,0.10065991130835543
371,1456704113477525,0.05459266933251421,0.06246882958073609,0.11750635094857592,0.10083388467654959
372,1456704113493492,0.06284953475655101,0.059493962990918206,0.12745499552763248,0.10746962881544837
373,1456704113514589,0.06785313156119681,0.059965841320360355,0.13927618318273433,0.12398755123744108
374,1456704113537616,0.06897297243453397,0.06502090959173355,0.15573955750522014,0.15167627074699747
375,1456704113552590,0.06658914457504107,0.0743277319745272,0.17733620468166358,0.18816074764777646
376,1456704113573879,0.06212878212227821,0.08586301402400626,0.2008504649361726,0.22704253901678909
377,1456704113597411,0.057829541294647076,0.09648519566697264,0.21977175528676324,0.25936856982364453
378,1456704113612412,0.056206488463059597,0.10321020453549115,0.22673299491444496,0.2765478968550183
379,1456704113634577,0.059315086157657196,0.10455556437473719,0.2168487737481826,0.273362170438531
380,1456704113657613,0.06801940966008507,0.10114500112201037,0.19018725244579476,0.24963101839567287
381,1456704113673535,0.08151568968287452,0.09518435561955466,0.15207366529042357,0.2099226456150084
382,1456704113694212,0.09730010626257107,0.0891561318976437,0.11108422077499829,0.16171779474895284
383,1456704113717609,0.1116479146664219,0.08458028323611871,0.07573571091637657,0.11298924048992638
384,1456704113731493,0.12055418168897532,0.08159940819094504,0.0514530544901085,0.0701617986766709
385,1456704113753500,0.12096214458139919,0.07956378869093353,0.03916029651631374,0.03709666887895212
386,1456704113777608,0.11190297243200299,0.07812513060991923,0.035950314945645684,0.015258347514150087
387,1456704113793663,0.0950103922918938,0.07802228656304175,0.03725828984592395,0.004692772340335035
388,1456704113815793,0.07406416441151056,0.08095591580090887,0.039347190381084605,0.005116828011678183
389,1456704113836801,0.05375773586654213,0.08856512247145303,0.04096062912948535,0.016500067288570675
390,1456704113852795,0.03829505747940861,0.10113614267770513,0.04356087825232707,0.038915152307354296
391,1456704113875796,0.030346450405997104,0.11687659007596991,0.05026636246355412,0.07183647947745293
392,1456704113897040,0.030553861559411363,0.1322477727629989,0.0640875418914825,0.11326919239305448
393,1456704113912810,0.0375637674530099,0.14320732830260474,0.0862050299193058,0.15911395902891637
394,1456704113935811,0.04853303801233949,0.14669682539384893,0.11491711252416714,0.20313499729060305
395,1456704113956855,0.060009012790969055,0.14163051449983782,0.14563353358163217,0.23782144177029418
396,1456704113972813,0.06895327620316981,0.12902479086601265,0.17197011010364244,0.25619461255639353
397,1456704113995822,0.07356172093360994,0.11144272729668962,0.1876418749795998,0.2541410437788543
398,1456704114017124,0.07356250290666627,0.09220224498284148,0.18855986730548588,0.23234947374760584
399,1456704114040829,0.0698983411294257,0.07468024998990182,0.17441982697184497,0.19682383232681921
400,1456704114055867,0.06401821066504647,0.061772147406416913,0.14916140910517822,0.15746077863982072
401,1456704114076868,0.057187030720481494,0.055425709053015554,0.11997124442062486,0.12506288693938059
402,1456704114093346,0.050136866655993456,0.0562365925164981,0.09501167198567612,0.10789517990745576
403,1456704114116515,0.04313250567820929,0.06324205416641214,0.0806610173894623,0.10912075277677971
404,1456704114137509,0.03629258095021652,0.07409330930767692,0.07940557108060654,0.1260833463963139
405,1456704114159504,0.029900842819284713,0.08564238383220957,0.08929596667908013,0.15160277609799216
406,1456704114176507,0.024498596064072634,0.09475763718953585,0.10512268336464631,0.1766146681326819
407,1456704114197573,0.02072933108295581,0.09907799232126338,0.12064113302250777,0.19306163832092316
408,1456704114219574,0.019070304532299572,0.09748980297005425,0.13078932592821105,0.19606877190151314
409,1456704114235575,0.019610714680067278,0.09025424907228621,0.13304475242386407,0.1848839972007783
410,1456704114256825,0.021951253699781636,0.07881293224362547,0.1276171991765635,0.16252415972290923
411,1456704114278583,0.025229922889828123,0.06534148681816813,0.11669545467344992,0.13440090183400236
412,1456704114296084,0.028277955096488932,0.05215096023089072,0.10323817585325783,0.10641679982837682
413,1456704114316841,0.029912841637973753,0.04108063184473791,0.08981837615263587,0.08313515345014326
414,1456704114338793,0.02931519145626909,0.033059543682954766,0.07789112302625852,0.06659838242517015
415,1456704114355593,0.02634769218256009,0.027986266157609033,0.06764348167814806,0.05616255919918827
416,1456704114376846,0.02165514700836342,0.02496805655734596,0.05837145844659474,0.049356321974156146
417,1456704114398636,0.01647620585914523,0.022817115518175387,0.049167955843532944,0.04337610307199588
418,1456704114415605,0.012239400508670123,0.020600319676449392,0.039635138085296534,0.03656887616206029
419,1456704114435809,0.010108962862732317,0.018030344136276133,0.03035677667123385,0.02927601614228849
420,1456704114459609,0.010645391597395805,0.015566332213914466,0.022960136893604814,0.023729527577070524
421,1456704114475609,0.013683793311762487,0.014214085879209798,0.019734533860626315,0.023135756866759404
422,1456704114496621,0.018455883298926248,0.015123212642971829,0.022919442155246404,0.030403557642650146
423,1456704114519628,0.023902007249505225,0.019134562210684155,0.03388257356323222,0.04702049115489253
424,1456704114536629,0.029041718836506435,0.026425119943957076,0.05243916354599536,0.07238718568946448
425,1456704114557631,0.03323265706196674,0.03634591985068899,0.07652012084967512,0.10367157225816379
426,1456704114578918,0.03620026537081764,0.04748782662534782,0.10231843152555731,0.13613162070966026
427,1456704114595143,0.03786052870518761,0.0579673057246052,0.12495759529066014,0.1639008571439299
428,1456704114617652,0.038090899456129375,0.06588831197248136,0.139617110758333,0.18125975169748973
429,1456704114640653,0.03662376130473853,0.06987506299731623,0.14289126863284418,0.18424218489619232
430,1456704114654654,0.033134297297134845,0.06949052385673085,0.13397160715161915,0.17208813079294874
431,1456704114677655,0.027473959956050776,0.0653326152821483,0.11514304119206596,0.14783967052399494
432,1456704114698953,0.01995563304913989,0.05871863935248959,0.09123093256130523,0.11758687335712514
433,1456704114714676,0.011610487190033793,0.05110534489856959,0.06807508844603373,0.08850295532662271
434,1456704114737676,0.004333389897186609,0.04357756593125194,0.0506163874986622,0.06647511999654802
435,1456704114759678,0.0007928359859504978,0.036689435292537736,0.04140744328555846,0.05435104094673729
436,1456704114774679,0.003970590140654939,0.030669062463284213,0.04013920050001872,0.05145008078923307
437,1456704114797702,0.016300743490443796,0.025732579525000018,0.044278145637947935,0.054371173006643805
438,1456704114818989,0.0385967111913722,0.02222471349729216,0.050432498959663875,0.05867352370609416
439,1456704114834702,0.0691700934312922,0.02050414757044164,0.05580828871693332,0.060800410876066795
440,1456704114857703,0.10360547595185529,0.020716663398134164,0.05915620940807606,0.059551243784544815
441,1456704114878711,0.13548789309117115,0.022669594796695516,0.060935910628888444,0.05650353166302694
442,1456704114895215,0.1580350709764164,0.025923783470411233,0.06284869931256412,0.05516186314709889
443,1456704114917723,0.16619721378048238,0.030052919990098514,0.06710066695308586,0.05919287006663228
444,1456704114938726,0.15850722307976264,0.03490132513590445,0.07564235455696856,0.07057785075981123
445,1456704114954726,0.13793181701478419,0.04067786719017656,0.08943712372346842,0.08855938917412598
446,1456704114978727,0.11126301287935081,0.04784213537500833,0.10782474053633331,0.10980559884488442
447,1456704114998958,0.0871333500748395,0.05685641529972117,0.12821022677502356,0.12954515539055797
448,1456704115014751,0.07330441291314513,0.06789978822245697,0.14634919618261497,0.14302061541272962
449,1456704115037752,0.07418612401030006,0.08061037480269004,0.15733047253436375,0.1467257316758759
450,1456704115058861,0.08946368734534642,0.09392737471980513,0.1570854950765361,0.13925176066371064
451,1456704115075014,0.11431604029040048,0.10612889811674515,0.1439632963056897,0.12168712874807357
452,1456704115097776,0.14114769895777152,0.1151364175463384,0.1196935616560554,0.09738780515414482
453,1456704115119063,0.16217445065849356,0.11908983708480303,0.08914405410500935,0.07100788372164807
454,1456704115134781,0.17185757298530074,0.11711578351586928,0.05879528641755456,0.04710939576443052
455,1456704115157781,0.16833418461372643,0.11008440258348634,0.03455134650792442,0.029024117629264386
456,1456704115179081,0.15356498347677025,0.10098763190174098,0.019883826774581292,0.01848282506818711
457,1456704115195793,0.1324581678238053,0.09451744753296085,0.015097664920215054,0.015993992680922334
458,1456704115217801,0.11137777578066228,0.09564173250443175,0.017905397788955803,0.021529432802826317
459,1456704115239097,0.09633907483716375,0.10748026084362051,0.024902994169370835,0.035015199417553725
460,1456704115254803,0.09121442554042077,0.12935858734054312,0.03322554686490503,0.05632089563132712
461,1456704115277804,0.0965172881083848,0.15617082095558757,0.04168045136190825,0.08470773806590054
462,1456704115299109,0.10943132315501403,0.17975203060123665,0.05093483626933639,0.11797143262365982
463,1456704115314823,0.12528102541009464,0.1918973277113904,0.06274453219132091,0.15177564573084149
464,1456704115337827,0.1397380096118175,0.18762459355417221,0.07862301451913357,0.17981692363708776
465,1456704115358827,0.15049729432784598,0.16706889327154728,0.09861378590478091,0.1952883143822795
466,1456704115374845,0.15754933206095031,0.13519401009503684,0.12078107956992777,0.19344841942523403
467,1456704115397840,0.16217224560986263,0.0996912066796098,0.14164851598032163,0.1741809245560896
468,1456704115419109,0.16548002912250906,0.06822432360249284,0.15734263559437298,0.1429893221690997
469,1456704115441849,0.16738750625421603,0.04623193819992467,0.16493950598924462,0.10953608392893716
470,1456704115457844,0.16644947528307807,0.03596546665295771,0.163516918223682,0.08426384689141862
471,1456704115479012,0.16053129910151315,0.03672788186500787,0.15453488031592028,0.07469915937578908
472,1456704115502156,0.1478931781926242,0.04579082283493674,0.14133806027786128,0.08300434273665584
473,1456704115518140,0.12818892589874503,0.059421425154494445,0.12786906290384933,0.10553574164002374
474,1456704115539442,0.10303589633115841,0.07372987364385404,0.11709206455810511,0.13432365520010672
475,1456704115563142,0.07598234841978176,0.08532567220737151,0.10990092495862182,0.15981374240793383
476,1456704115578143,0.05182007910151847,0.09182901681571232,0.10510810365803802,0.1738657951334222
477,1456704115599161,0.035363259071269644,0.092199256608679,0.10048552765122377,0.17199198882720446
478,1456704115622162,0.030035740750689342,0.08679866639523014,0.09419421201541925,0.15422960253198315
479,1456704115638164,0.03674362360842085,0.07715330992599438,0.0857714657979336,0.12462603478472596
480,1456704115662163,0.05345961483395778,0.0654429497518373,0.0762067621996838,0.08970542781626296
481,1456704115682184,0.0757091811084156,0.05382968493877004,0.06720486208997055,0.05644524492236302
482,1456704115706196,0.09779911070922837,0.04382901562364205,0.060143909676236125,0.030359572258135868
483,1456704115721191,0.11433293718273195,0.03597417398289324,0.055318245546037426,0.014248448535544262
484,1456704115742238,0.12150177030423652,0.0299268542801007,0.051839819831742566,0.007933090149864212
485,1456704115758199,0.117834976131477,0.024957228065720434,0.04819801321888679,0.008930072292088828
486,1456704115781230,0.10434256060718701,0.020511939627380738,0.04313085253188354,0.013716680623522626
487,1456704115802413,0.08410583238794082,0.016568833508869497,0.03632322916981354,0.01910273049276253
488,1456704115818251,0.061412779337652455,0.013642815977179397,0.028595684317935185,0.023238221035875466
489,1456704115841256,0.04062113940808409,0.012515600034294897,0.021559536143936565,0.02593972799086294
490,1456704115862256,0.025064172656424556,0.013871111614161113,0.016963666373498904,0.02829298368894784
491,1456704115878465,0.016348034288582423,0.017998032571220363,0.01602481855866246,0.031783436331367716
492,1456704115900462,0.014241120710373641,0.024639099108625065,0.01896829232306616,0.03737518570402559
493,1456704115922445,0.017112431773142343,0.03299782103167343,0.024904389546790844,0.04492709015417247
494,1456704115938347,0.022690485009540375,0.0418780921914854,0.032064931900456645,0.05314458293256002
495,1456704115961444,0.02885916941980536,0.04991419891289455,0.038326862851712495,0.060029346691011516
496,1456704115982397,0.03424813083100114,0.05583595211230257,0.04186816021180023,0.06361685649442066
497,1456704115997456,0.03845312894195934,0.058709278415496294,0.04175261517960987,0.06272900087180469
498,1456704116021462,0.04183724084421324,0.05810166479112723,0.038239623924965487,0.05748543431861917
499,1456704116041482,0.045038524352703745,0.05414309099663512,0.03268201922897736,0.04937791571889182
500,1456704116057464,0.0484663558943145,0.04748046944097735,0.027019155341651488,0.04083935254314763
501,1456704116080466,0.05206123462406884,0.039149208723376606,0.023051351792929466,0.03444793354280994
502,1456704116101518,0.055395404496042716,0.03040034084243613,0.021795417765581998,0.03209455665378673
503,1456704116117478,0.057963761191057145,0.022518244415921342,0.02319143358760747,0.03445754002063112
504,1456704116140479,0.059436157648899375,0.01664697946206312,0.026270215995081326,0.040953654215168285
505,1456704116161516,0.05973802705918101,0.013635232496662328,0.02967668258968433,0.05010159887922408
506,1456704116177481,0.058979777961312506,0.01392677447413849,0.0322768411394428,0.060079943236813815
507,1456704116200501,0.05734966350581832,0.017541189971706117,0.033550761385200384,0.06923630182409982
508,1456704116221507,0.05508611586987498,0.0241644837794955,0.033615646685982124,0.07638358346943025
509,1456704116237503,0.052577129188224755,0.03329893189848367,0.03294191810621488,0.08083966019863789
510,1456704116260504,0.05053145935865406,0.044364541405828815,0.031984010152015276,0.08227593474909028
511,1456704116282060,0.050076928040595395,0.05666759212366682,0.03096318692370473,0.08052489278911883
512,1456704116297561,0.05262680941166819,0.06926179034677378,0.029913002334307517,0.07553810208048374
513,1456704116320567,0.059450287782759195,0.08084480575238077,0.028904721477509422,0.0676093010012695
514,1456704116341831,0.07105458824674707,0.08985039329492892,0.02823746080084024,0.05773980901828685
515,1456704116357569,0.08664802873310168,0.09479526680276455,0.028408194992593012,0.04778087832024362
516,1456704116381570,0.10400036551293267,0.09481307921734355,0.029854212420065574,0.04002698224789278
517,1456704116402519,0.11988132089922036,0.09023014188160046,0.03265090695655653,0.03632757666483441
518,1456704116418298,0.13099494152244878,0.08297727993827679,0.03640410578974357,0.037223867749579066
519,1456704116440565,0.13510038844987743,0.07655638112439499,0.04045022286565866,0.041716037826262584
520,1456704116464299,0.1319180646367438,0.07528710948789165,0.0442557763232836,0.04793392714297733
521,1456704116478444,0.12343124269131861,0.08280840131163583,0.047760175301147435,0.05443189835619688
522,1456704116499734,0.1133142684716089,0.10029366644593972,0.05146040429480119,0.06137628171360898
523,1456704116521776,0.10555364656445476,0.12526205007082913,0.05624596822964267,0.07082342439279388
524,1456704116537959,0.10282192295483475,0.15182178666681503,0.0631435658948843,0.08570042044410624
525,1456704116559738,0.10544044244888702,0.17252279350924282,0.07305873315092033,0.10782765024285576
526,1456704116581776,0.11147282144857766,0.18107815830167825,0.08641905476769514,0.13600092008287204
527,1456704116598272,0.11778308535370415,0.174684539600615,0.10264997674525707,0.16538345586498981
528,1456704116619780,0.12136248832934635,0.1549257139472796,0.11975063135546964,0.18895672569985605
529,1456704116642781,0.12026744466273646,0.12704888542317347,0.13449458600706898,0.20061622106231758
530,1456704116663782,0.11393115969770523,0.09813590226429475,0.14349785731980794,0.19830835380739112
531,1456704116679783,0.10299082096224707,0.07494764086167098,0.1446987536010505,0.18530650029550588
532,1456704116702814,0.08890787944271909,0.062088035313345245,0.13834393786837315,0.16873871094228787
533,1456704116724005,0.07357942538215449,0.060911926135631504,0.12684629361943553,0.15617789743995314
534,1456704116740045,0.05897215509784209,0.06942014599716564,0.11364751020543121,0.15222840233338858
535,1456704116762814,0.04673888160741485,0.08316058815853565,0.10180288971276143,0.15681619564821211
536,1456704116784238,0.03787236045844458,0.09682017941068063,0.09298753034621665,0.16569293415213607
537,1456704116799569,0.03255342300129766,0.10590011189382563,0.08721093479515758,0.17252295872013906
538,1456704116822572,0.030279413857943343,0.10785536142539909,0.08316465065624011,0.17146188538455834
539,1456704116843580,0.030168163161637063,0.10238654003536153,0.07896397084000961,0.15924189110788928
540,1456704116859576,0.031236982211849843,0.09097965532336312,0.0729836114458824,0.13612618307955696
541,1456704116883367,0.03255530048092497,0.0760538548061918,0.06449484177773343,0.10555507863243004
542,1456704116904013,0.033333699020145865,0.060114609337484595,0.053919700871963586,0.07279657063078802
543,1456704116919801,0.033049580975169295,0.04517993835134457,0.042677753463078616,0.04323682796491226
544,1456704116950803,0.03159503613619083,0.03255820329164828,0.032723333503963316,0.02095073120005918
545,1456704116964050,0.029321101911773367,0.022900416545266283,0.025936856015028906,0.007939947701838056
546,1456704116979806,0.026884158664057325,0.016380133176758897,0.02355964457177385,0.00410271373138465
547,1456704117004609,0.024941573239536396,0.012872218367836426,0.025834406778164672,0.007752860185528015
548,1456704117023616,0.023853202148952337,0.012067655215478756,0.031933483451738534,0.016385798157425305
549,1456704117039611,0.023541198468816343,0.013524350519737811,0.040173870964557504,0.02739111247518223
550,1456704117062613,0.023568177032759055,0.016688247698365962,0.04845730683430836,0.03851833241663783
551,1456704117084193,0.023376572769151595,0.020925600269763835,0.05481134636316986,0.04807095835104049
552,1456704117099927,0.022554291816998175,0.025590633555916183,0.057856978875461484,0.054943217771726824
553,1456704117122928,0.021002050376776448,0.030119194797751995,0.057055787119429144,0.058633093350923614
554,1456704117144213,0.018957220147761526,0.03410832954403052,0.05270420928416903,0.059258699474614034
555,1456704117159932,0.01689906620129987,0.03733930421768996,0.045757119406743936,0.057485566458297985
556,1456704117182931,0.015378285127827246,0.039732482126465615,0.03759167307017197,0.05427869034096815
557,1456704117203454,0.014812550917877828,0.041263882157296206,0.029767181634309532,0.05053435453358693
558,1456704117227449,0.015307163259018847,0.04189454636770075,0.023771237770019996,0.046774515800539505
559,1456704117242450,0.01657720094814956,0.04155142803121887,0.020735464167347915,0.04306588221537459
560,1456704117263452,0.018022519397956155,0.04016320825871454,0.021160260408969418,0.03918068066751257
561,1456704117280455,0.018939090668913153,0.03771993451300149,0.02475066170013558,0.034871848756784514
562,1456704117303403,0.01878540338233368,0.034314276581901886,0.03047147807973384,0.030090138157231838
563,1456704117324404,0.017402351203254954,0.030145029668004288,0.03685351431007442,0.02504821201227005
564,1456704117340381,0.015111757830504823,0.02550300646167741,0.042458149421121645,0.02017683902009409
565,1456704117370416,0.012666293983793092,0.020773685946130004,0.046318225244076715,0.01609514369574762
566,1456704117384366,0.0110659050922198,0.016458881844803753,0.04818321547436507,0.013651664240252659
567,1456704117399455,0.011283359302957728,0.013174388085254873,0.0484892989543327,0.013950270144804398
568,1456704117422489,0.013957757675634643,0.011571656168019933,0.048083191823268874,0.01819633519946769
569,1456704117443471,0.019126709327682904,0.012171376665767468,0.04780728139920278,0.027266426449952388
570,1456704117459466,0.026080488246573188,0.015160327391899245,0.04809731754885971,0.041096389739418634
571,1456704117483466,0.03343015164601455,0.020251932201904597,0.04875697203948715,0.05819370381187753
572,1456704117507692,0.03945965920797033,0.026707957467139838,0.04904601427530646,0.07565718381854374
573,1456704117519694,0.04274263832906478,0.03354971240210483,0.04812634210158714,0.08991271795562011
574,1456704117542694,0.04284916559097464,0.03988667702708424,0.04574169623696844,0.09799353991093529
575,1456704117563696,0.04082709245667952,0.045222275472331486,0.04281609056176084,0.09883203542063895
576,1456704117579698,0.03913934205015726,0.049598579407678,0.041575620894931296,0.09392258497475797
577,1456704117602328,0.04093361093156146,0.0535021452114501,0.04494990797048235,0.08693838445089319
578,1456704117625329,0.048841181875655816,0.05754063798390018,0.05536920439406086,0.08234553941595396
579,1456704117647330,0.06377588473279917,0.06200032084674646,0.07344882648662583,0.08355594671478118
580,1456704117662368,0.08426288695542337,0.06649714506260293,0.0972060617400686,0.09144496131094221
581,1456704117686316,0.10661993875650153,0.06998256661139544,0.12226587556144522,0.1039373454481754
582,1456704117700317,0.12596974061832833,0.07126511462058095,0.14306941483727206,0.11687202759337381
583,1456704117722561,0.13777042519382532,0.0699353053738565,0.1546482774468913,0.12577222490686105
584,1456704117745563,0.1393800764390839,0.06726232159264986,0.15429609002415617,0.12777099360082977
585,1456704117759563,0.1310970571889217,0.06647330779506141,0.14252417040425203,0.12289810999936884
586,1456704117782565,0.11618946949137247,0.07197319499317588,0.12294475103864028,0.1141930725952341
587,1456704117805952,0.09974404042305418,0.08752588471770238,0.10107728533574417,0.10657311569840698
588,1456704117819953,0.08668489283519751,0.11405178653275716,0.08247028553295867,0.10490119276192619
589,1456704117842956,0.07979287238797804,0.14817171730610723,0.07087595480175478,0.11205467588879489
590,1456704117865956,0.0787021595016493,0.18253193648010899,0.0672706202220474,0.12780466548333538
591,1456704117879957,0.080488065796108,0.20812478430116313,0.07010737499691798,0.14897177617977364
592,1456704117903075,0.08165464658498443,0.21767422043852622,0.07652915335266983,0.17082244706494149
593,1456704117926076,0.0804827816336815,0.20845983166422039,0.0838484540495102,0.1892017884251357
594,1456704117947078,0.07839984255567264,0.18321751552227702,0.09064135343002674,0.20252160200674207
595,1456704117963079,0.07957052366778271,0.14878542178631923,0.09708241429930194,0.21256269725838092
596,1456704117986103,0.08892072999688976,0.11328829992620112,0.10444456645575662,0.22344861246592423
597,1456704118007393,0.10959472715176656,0.08326609342832936,0.11404996965153713,0.23920012432146354
598,1456704118023399,0.14101252786684831,0.061997415188592024,0.12629939352043204,0.2613001521508643
599,1456704118046339,0.1783447038751395,0.04948275517590512,0.14036949633345927,0.2877210114025905
600,1456704118066348,0.21365704576250355,0.043641081563339,0.15466230626962202,0.3138287954773024
601,1456704118083394,0.2383733365732114,0.0418214162793218,0.1675608696927888,0.33442525980448257
602,1456704118106327,0.2461470320661372,0.04191179026698988,0.17793594610443372,0.34572085211157666
603,1456704118127395,0.23496340251456968,0.04279928781828528,0.18514789821238237,0.34629154097555914
604,1456704118143102,0.2076220478983962,0.044281564794038615,0.18867810164010151,0.3367381090284325
605,1456704118166103,0.17058632606744098,0.04665114303547291,0.18774168932803634,0.31851238979671925
606,1456704118187357,0.13193109787662305,0.05018671468827347,0.18121397827558008,0.2928169132507659
607,1456704118202506,0.0992491356054596,0.054761236390907034,0.16802459788070973,0.26032806991099655
608,1456704118225507,0.07800603954559002,0.05970334571415243,0.1479327410513217,0.2218556657213757
609,1456704118246509,0.070507614871991,0.06393884044160227,0.12235796320903478,0.17940980852025837
610,1456704118262509,0.07564078053867113,0.06633581560742423,0.09479223318971595,0.1369064740117155
611,1456704118286304,0.08961279848656929,0.06610428615687082,0.07039247797953406,0.09997729521591221
612,1456704118306967,0.10767377286037029,0.06307368607500793,0.05470421208784382,0.07487060459884187
613,1456704118322739,0.12627951595315268,0.05771753439664592,0.05194668046463345,0.06693807447054248
614,1456704118344740,0.14473663640527268,0.05091865805842011,0.0635953573047497,0.07938521955289775
615,1456704118367048,0.16544617868912337,0.0436123411471754,0.08790309356744752,0.11270484263133085
616,1456704118382742,0.1924520276649468,0.036514139245678784,0.12055067216303883,0.16473538580922875
617,1456704118411883,0.22881048221179554,0.030077779147685734,0.1560818581323865,0.23098976404457794
618,1456704118426877,0.27393774401092635,0.02466964983335479,0.18945273025944884,0.3049844928941365
619,1456704118442877,0.32224140528155276,0.02079291231825569,0.2170699587684074,0.3786156036892343
620,1456704118464879,0.36385919879936746,0.01914890242899785,0.2370588142249357,0.44285624093650083
621,1456704118486885,0.3873900044381202,0.02042542843997778,0.24893891659833564,0.48896912923021935
622,1456704118502891,0.38360132383834444,0.024897343457500675,0.25309840067797473,0.5100892328514769
623,1456704118524892,0.3487254378724381,0.032082083771964386,0.2503461046124911,0.5027180164613423
624,1456704118547894,0.2862187053494421,0.040686120970421714,0.24157611590891775,0.46761943702559067
625,1456704118562894,0.20647525271799025,0.0489057425043767,0.22748660589033934,0.4098288847847527
626,1456704118586091,0.12463862583117669,0.05494352017958036,0.20842800897868913,0.3378311932614169
627,1456704118608079,0.057179388841557335,0.05751536541124595,0.1845843806535231,0.262239553179072
628,1456704118623067,0.018196227725529902,0.05617784919336905,0.15655993666492246,0.194333989085343
629,1456704118645095,0.01635988226673608,0.051417884497700586,0.1261004580464025,0.14458390084438125
630,1456704118667874,0.053110304723482084,0.044527990852374306,0.09645822899083373,0.12105374503589322
631,1456704118682875,0.12236271437984544,0.03731347250460543,0.07205760009962603,0.12770452488566786
632,1456704118704669,0.2117398097115233,0.03167409033942953,0.05752192566472752,0.1630451912938609
633,1456704118727671,0.30515526031854695,0.02912312360999536,0.05643643994428441,0.21990812278128952
634,1456704118742672,0.3862877612079838,0.030364411603252855,0.07025653985300953,0.2868690469910583
635,1456704118764674,0.44215584922453666,0.03508080915873578,0.0976473062218618,0.3510858247562019
636,1456704118787962,0.46584354588059734,0.04202111306083722,0.13443070700829315,0.4016329933566751
637,1456704118803445,0.4575754918946061,0.04933953041007047,0.1742230776892638,0.4321666858222216
638,1456704118824277,0.4237840946848194,0.055066444200746106,0.2097125024200599,0.441984159523456
639,1456704118847278,0.37446284995618806,0.05761556028190105,0.2343629488745809,0.43511356733913165
640,1456704118862442,0.3197830095895736,0.05625325839725106,0.2441439108065587,0.417833743461163
641,1456704118892290,0.2673326649797321,0.05138805089172634,0.23870418224004591,0.39570088928085034
642,1456704118907797,0.22108512419606843,0.044490420681449955,0.22142169411482737,0.3713898505820651
643,1456704118922798,0.18231893929423934,0.03759212904557327,0.1981505910640107,0.3442701126350564
644,1456704118944800,0.15165842329469528,0.03258714737679168,0.17510741380991676,0.311806385420169
645,1456704118968801,0.13082048868889481,0.030699503948074268,0.15676134117796625,0.27201098135967605
646,1456704118982800,0.12290729113158576,0.0323341461165514,0.14455070699525224,0.22568441229289013
647,1456704119004866,0.13103613148815038,0.037223382099874594,0.13686481611992768,0.17729141658407432
648,1456704119033837,0.15618761224526473,0.04460958603268759,0.13024981609782788,0.13399936345201285
649,1456704119049034,0.19568443404598534,0.05330675601974586,0.1213141396287875,0.1033250820883736
650,1456704119065076,0.24330237715376848,0.06172897026570209,0.10842989550991121,0.09050085803408969
651,1456704119088286,0.29095755608466967,0.06809928684898954,0.09234258546881309,0.09672358128063392
652,1456704119109552,0.33100006702310375,0.07092668218732599,0.07539337615224699,0.11890208692515368
653,1456704119124552,0.35797623122143557,0.06957802821328565,0.05991657438558143,0.15074194757788986
654,1456704119148555,0.3692564587874011,0.06460676806514674,0.046871971921695996,0.1845129945726901
655,1456704119170554,0.3646489418484236,0.057571608102931535,0.03555324702097319,0.2128810214801511
656,1456704119184554,0.34554704434542693,0.05035796007166995,0.024513772203948275,0.23052004442258098
657,1456704119208256,0.31416746150096186,0.044334630934868675,0.013199135953328611,0.23541691775546772
658,1456704119228990,0.2731976726829975,0.03982596947403355,0.0034890105188754676,0.2296623178654984
659,1456704119245251,0.22587575973367938,0.03622647106221258,0.0003952466363519395,0.21930517993896975
660,1456704119269261,0.1762697075390823,0.032693152857585575,0.011412078773495834,0.21287211450043844
661,1456704119289212,0.12939053764565756,0.028969024474791237,0.04443930810535652,0.218589666442291
662,1456704119304223,0.0908413720883725,0.025790698329571853,0.1047574964705199,0.24106218017454772
663,1456704119328334,0.06592732168093046,0.024594785289057994,0.19203238090542968,0.27873810581520075
664,1456704119349227,0.058376346312731586,0.02667991021917642,0.29851041782873566,0.32346546999084547
665,1456704119365228,0.06897866172839308,0.032312506816811665,0.40931870955742866,0.3626407251606653
666,1456704119388171,0.0946065576041838,0.040300960078706316,0.5051740065915392,0.38328736548079384
667,1456704119408883,0.12821392423117367,0.04831296165710279,0.5670203955739448,0.3765262368106003
668,1456704119424668,0.16030003656894248,0.05381727067460172,0.5813797873504939,0.3407544122413865
669,1456704119447670,0.1817373271319942,0.05519044101015946,0.5447661894606367,0.2824316843282963
670,1456704119468677,0.18699664896484994,0.05242953879463263,0.4655993965030786,0.21435673966842145
671,1456704119484672,0.17626478010452923,0.04712556127688547,0.3627135268286882,0.15221982931949052
672,1456704119507407,0.15527558285482027,0.041751315653773026,0.26062968103672707,0.1106338448077645
673,1456704119530409,0.13280152708581724,0.038649936420542375,0.18292378510047536,0.09971058153531576
674,1456704119544410,0.1169742423179801,0.03919082346088147,0.1458441372538527,0.1228708663371617
675,1456704119567410,0.11213015768428769,0.04339363603128096,0.15437006538007167,0.1762486690146104
676,1456704119591342,0.11746794214817968,0.05006406808343261,0.201971167907006,0.24977501769880528
677,1456704119605075,0.12787184012522865,0.0572932567434789,0.2738299365297769,0.3297066478000943
678,1456704119628079,0.1363678099183708,0.06309299300455717,0.35202084645149917,0.40200809416241556
679,1456704119650862,0.13711175649599855,0.06594814117485956,0.4206601535972931,0.4556814739378304
680,1456704119664862,0.1276416938307305,0.06514496371495597,0.4693853115205392,0.48500251821915963
681,1456704119688153,0.10947981645818748,0.06084063865062174,0.49437149401103575,0.48990154214568105
682,1456704119711163,0.08701459060685648,0.05391005105522638,0.49704663980566677,0.4744878315457701
683,1456704119726164,0.06547009215097342,0.045631269650863705,0.48143588822732225,0.4445549159736507
684,1456704119748166,0.0490926560814486,0.03730241531320505,0.4515038380847566,0.40525604285414935
685,1456704119771167,0.04030901815418715,0.029917491450867827,0.40981360844326187,0.35984674112008336
686,1456704119792251,0.03989870208643947,0.024004336557201904,0.35811808196045886,0.30976929232784933
687,1456704119807753,0.04763881749277281,0.01964358383340871,0.29930689427449736,0.25577603412629135
688,1456704119830755,0.06272094601889333,0.016611454827422108,0.23914554360162804,0.19942991912191968
689,1456704119844756,0.0835922898154159,0.014558416721560056,0.18623529928012678,0.14422980831385165
690,1456704119868756,0.10750572252714788,0.013147652934113095,0.14973676047356607,0.09579954286303684
691,1456704119890762,0.13047673120091496,0.012126142966538805,0.1359223019182805,0.060989462285465035
692,1456704119904775,0.1481678643864094,0.011357230246273149,0.14549104600425003,0.0461883134288501
693,1456704119927776,0.15755556322546155,0.010857750301643817,0.17318721590776812,0.05544297986893509
694,1456704119950777,0.15855687965009177,0.010842884328796406,0.2099059448437495,0.08904524368802495
695,1456704119971779,0.15458819015163844,0.011728013617581627,0.2460941983021717,0.1430765385712434
696,1456704119995986,0.1514968080454069,0.014022550078817088,0.2747169025101204,0.21007365463828942
697,1456704120011252,0.15523504670727176,0.01810200461509375,0.29255508259750357,0.2806157870883628
698,1456704120032244,0.16943876373424277,0.023936652092600992,0.29966919659052554,0.34535570513038777
699,1456704120048002,0.19411483398306156,0.030921519063272607,0.2978042742960473,0.39688614709445313
700,1456704120071249,0.22587780184163192,0.03793347153709098,0.288849789642725,0.4308880468200148
701,1456704120092316,0.2592514312548833,0.043633928197379324,0.27412358351584326,0.446274675958161
702,1456704120108166,0.288190554390783,0.046900475206232466,0.2545365085447183,0.44444125577962246
703,1456704120130938,0.307278482014206,0.047192711455594505,0.2311082463332279,0.4280553811685731
704,1456704120151981,0.31253009540684956,0.044688044223160514,0.20521388828330098,0.3999237256918945
705,1456704120167940,0.30192293552425503,0.04014107534774736,0.17832707251766927,0.36233622894540857
706,1456704120191380,0.27565046338167465,0.0345534100099994,0.15151008614931458,0.3169984306152286
707,1456704120212400,0.23592602942609842,0.02881813577360018,0.1250875065054784,0.26533332586991737
708,1456704120227399,0.18623802600125652,0.02348951324085808,0.09874725691992858,0.20875562422536828
709,1456704120249243,0.1302699180202969,0.018738162625194333,0.07197489090117556,0.14865261963689683
710,1456704120272355,0.07097923154634199,0.014448180114323741,0.04451605674395617,0.08615363268292779
711,1456704120287392,0.010298892120765579,0.010364130487196418,0.016579235129403323,0.02201311971348709
