,timestamp,roll,pitch,yaw
0,1456704106043305,0.00651110977117177,0.021691604316587322,0.05587572150228607
1,1456704106066306,0.017808472038483996,0.022198029946555346,0.05048032898275357
2,1456704106082315,0.02833649248785896,0.022181091441018902,0.04517722913873735
3,1456704106103318,0.037331482656275505,0.02133965145790142,0.0398529549973931
4,1456704106127529,0.044055313488981215,0.01976591978602393,0.034259726489315356
5,1456704106142326,0.04792659869891638,0.017980654128052047,0.028197922582012612
6,1456704106163322,0.048664116248575334,0.016781126057097324,0.021812267668819007
7,1456704106187338,0.046362085368743915,0.016930903834575663,0.01581475737735701
8,1456704106218355,0.041475038298380645,0.018824060255686458,0.011456367116038986
9,1456704106219350,0.03474596999810604,0.022295393578874393,0.010212708087898257
10,1456704106240353,0.02710308609602881,0.02667769039749893,0.013303583760325062
11,1456704106269352,0.019517349492628407,0.031069127666273788,0.02123073672019229
12,1456704106279367,0.012836128754349748,0.034663189529852964,0.03349612531320306
13,1456704106309583,0.007661219204352868,0.03698209633784635,0.04859651340089153
14,1456704106336584,0.00432956189533505,0.03793894502354419,0.06429766124902524
15,1456704106360586,0.0029790745360669425,0.03776094399296512,0.07809923318995382
16,1456704106361749,0.0036195605836954613,0.03685806947740131,0.0877548364179321
17,1456704106380593,0.006130091476005997,0.03569838875421369,0.09172370961710363
18,1456704106405775,0.010162492309173186,0.03469727028236016,0.08946849020717895
19,1456704106420773,0.015013696518620908,0.03410091139452181,0.08154593505848584
20,1456704106439826,0.019597039830169756,0.03386869685840809,0.06946608095471976
21,1456704106464769,0.022647895045720005,0.033611849085585836,0.05533842848485887
22,1456704106480644,0.023207097781788363,0.0326788770725082,0.041386024969839036
23,1456704106500856,0.021249149958720744,0.03044544150708666,0.029463094335758642
24,1456704106516857,0.018155002882528123,0.026755356466266325,0.020715536437915277
25,1456704106539859,0.01670160992065708,0.02232045747570431,0.015462232861085334
26,1456704106560859,0.020397273297344715,0.01882554697552936,0.013290170772298106
27,1456704106577386,0.03225535454635697,0.018582276169669804,0.013304469842143153
28,1456704106599894,0.05336900148086336,0.023793558084279794,0.01446271503960585
29,1456704106620117,0.08185105900819695,0.03568579119643071,0.015909016661161037
30,1456704106636894,0.11274040574017768,0.053827054473558476,0.017188639713823384
31,1456704106659896,0.1392492865703542,0.07587818282064118,0.018225589820844924
32,1456704106680626,0.15520566746307163,0.09789628765559086,0.019052547942590568
33,1456704106703263,0.15785790205027087,0.11518291315534958,0.019461510083994278
34,1456704106719975,0.14972750249198388,0.1235320802771104,0.018853351597450378
35,1456704106739977,0.13835746493951737,0.12056511377407494,0.016491843316482516
36,1456704106762979,0.13368268674713893,0.10670178740335008,0.012138809690788812
37,1456704106780501,0.14391899676035338,0.08534317084609697,0.006799545737408704
38,1456704106800294,0.17170436901349015,0.06209054601340554,0.0031750675062028498
39,1456704106825008,0.21226817982122556,0.04320055307819536,0.005454359158130217
40,1456704106840009,0.25459689232753313,0.033791836572311766,0.018276614772443214
41,1456704106862011,0.28530212049499737,0.03641186592670295,0.045017056699009746
42,1456704106883839,0.2937569747916331,0.050404018518203496,0.08592631400292404
43,1456704106899831,0.27649580536369606,0.07219685280741708,0.13692833065556143
44,1456704106920793,0.2390842061377681,0.09634631508688621,0.18983807502628994
45,1456704106943829,0.19459924988197283,0.11699574228828617,0.23426822898887642
46,1456704106959754,0.15915135132543942,0.12936554257694183,0.2607195555226906
47,1456704106982158,0.14602937812873348,0.13090413528559544,0.2637313030048292
48,1456704107003827,0.1606647495685524,0.12181792576637933,0.24387916246401814
49,1456704107019824,0.19844111729822594,0.10486107975670533,0.20786023595671957
50,1456704107041675,0.24632822877048371,0.08448075719657608,0.16660365348946526
51,1456704107064671,0.28767857432856386,0.06559988160694982,0.13198775562232043
52,1456704107080192,0.30809668189123984,0.05239434458010892,0.11319793313282585
53,1456704107102209,0.29994302095916653,0.04737707810775185,0.1139561991195766
54,1456704107123215,0.2639545657185412,0.0509944243413414,0.13163818093944907
55,1456704107140212,0.20796105833611597,0.061797544106338705,0.1585881053638603
56,1456704107162213,0.1438071716115917,0.07706052989644394,0.18503889811231636
57,1456704107183228,0.08389863627031295,0.09353981205074531,0.2024441714201844
58,1456704107200234,0.038426880290846566,0.10805943110106951,0.205983840256446
59,1456704107222235,0.013705700745184828,0.1178225202896374,0.1954364207789217
60,1456704107243236,0.011545504687189843,0.1206252374220764,0.17434398456568173
61,1456704107260245,0.029385389461792207,0.11523090673044932,0.1481681309007527
62,1456704107282759,0.06097103201662127,0.10195506301919963,0.12251788489708199
63,1456704107303675,0.09753833060855287,0.08317839010266738,0.10221696783638849
64,1456704107320675,0.1295479914365227,0.06332772827777215,0.09118235109256775
65,1456704107342473,0.14887014972783788,0.04801766817052428,0.09243225803956151
66,1456704107363469,0.15095337521035593,0.04245634910679699,0.10752561142728005
67,1456704107380484,0.13618967542101462,0.04963638208194874,0.13536644761958416
68,1456704107402407,0.1097562509070252,0.06900589951614323,0.17114923947977362
69,1456704107423408,0.07979334333782273,0.0961709194198442,0.20663110848785068
70,1456704107440410,0.05458803348365501,0.12383693750605564,0.23242624131289152
71,1456704107462354,0.039951783236416356,0.14381516660030044,0.241764169677117
72,1456704107483611,0.037837660718401264,0.1495738553215392,0.23393946072432928
73,1456704107507194,0.04656500596848118,0.1385555747503358,0.21543402454236463
74,1456704107522195,0.06227377423051565,0.11342168077494552,0.1977490112379755
75,1456704107543496,0.08078595366949279,0.08164676825105947,0.19276294683074657
76,1456704107560197,0.09900364400444885,0.05344179684567873,0.207782938096191
77,1456704107582467,0.11529625957050049,0.038609567572852,0.2425177024914592
78,1456704107603169,0.128929676607146,0.04334314562028012,0.28912278042620243
79,1456704107619941,0.13919722868410206,0.06802011041540042,0.3351207860300772
80,1456704107641941,0.1451041845494775,0.10677501556178748,0.3680194488402498
81,1456704107662943,0.1459783908764846,0.14914658522301022,0.3798876654525431
82,1456704107680449,0.14250234011580884,0.18341632637260136,0.3700079615770175
83,1456704107701965,0.13711941971984665,0.2004864977024306,0.3443289182157339
84,1456704107722972,0.13313144679554773,0.19670142860805204,0.3119541485681239
85,1456704107739967,0.13286526261969236,0.1744094497229261,0.2806086573714236
86,1456704107761970,0.13613418880426562,0.14026561811638352,0.2535935461841618
87,1456704107783671,0.14008058031999204,0.10245190661688305,0.22960904897080733
88,1456704107800396,0.14051538104153735,0.06822905705771372,0.20496894867895643
89,1456704107824187,0.13395943150823542,0.042540267313121674,0.17660483283373773
90,1456704107843487,0.1193357463783554,0.02759255992812037,0.1443161693589207
91,1456704107860190,0.09853576322963675,0.023056085843042307,0.11141834228104838
92,1456704107882507,0.0756209876391602,0.026623495319205676,0.08371244885784128
93,1456704107903697,0.055104762889091774,0.034795069110934586,0.06732647668072692
94,1456704107934762,0.040254632013483234,0.04378121403715162,0.06633563576092667
95,1456704107942471,0.032255323761094225,0.050395461292361166,0.08107619203233872
96,1456704107965472,0.030456771134135942,0.05277685954394302,0.10777468087922529
97,1456704107986499,0.03329858654861463,0.05075500997787057,0.1396441250617757
98,1456704108002691,0.03923508484653328,0.04571566883113941,0.16904741533489503
99,1456704108025691,0.047157986216923665,0.039968662138072146,0.18984921816380784
100,1456704108046511,0.05626336823074908,0.0358112526096166,0.19895040485313106
101,1456704108070511,0.06569708352466055,0.03462451800158016,0.19642576059843297
102,1456704108085763,0.07435152653300024,0.036358302292350396,0.1844893795195662
103,1456704108106841,0.08092998902496806,0.03962582934313591,0.16615543606563063
104,1456704108121842,0.08416949905744339,0.0423762988444746,0.1444711196511789
105,1456704108145844,0.08311845523908175,0.042836557755085145,0.12258211559423964
106,1456704108166105,0.07745821551630123,0.040265074114423635,0.10414757878259562
107,1456704108182563,0.06780643833991921,0.035171772875917044,0.09333028953291768
108,1456704108212069,0.05579474020711622,0.028975050358588095,0.09395032833303335
109,1456704108226103,0.043742540754211155,0.023360664278736454,0.10810718052064866
110,1456704108242069,0.03401471996539303,0.019683867947493945,0.13509430360326832
111,1456704108265071,0.02838164063065917,0.018633558997913365,0.1713430287988499
112,1456704108286082,0.02765840562643716,0.020198796426418062,0.211482340475728
113,1456704108302120,0.031665625181557466,0.023844971585226797,0.24989096076200892
114,1456704108325119,0.03937524987883819,0.02875074412809943,0.2819084538651304
115,1456704108349120,0.04911838325355427,0.03398943694355961,0.30427150399141006
116,1456704108362330,0.0588616823600483,0.03863525448740384,0.314935886564278
117,1456704108385501,0.0666334043929737,0.04185264680204842,0.31275352502266446
118,1456704108406274,0.07111251416241172,0.043019293913596594,0.297389164080893
119,1456704108421999,0.07221986881760313,0.041866013568543074,0.26958683468993255
120,1456704108447002,0.07136883903495983,0.03856887620634946,0.2316205066307508
121,1456704108466009,0.07102223280704588,0.033736553013168386,0.18756532360385658
122,1456704108489771,0.07353547439548855,0.028278560657632693,0.1429984754267761
123,1456704108505778,0.07981275450766524,0.023185847795759332,0.10397223355319661
124,1456704108526116,0.08858435787984052,0.019285759377866366,0.07552446068163936
125,1456704108542780,0.0967865231793588,0.017042346896671046,0.06033640314278634
126,1456704108564784,0.10082793242302251,0.016464127934423815,0.058136740766937485
127,1456704108586575,0.0980592188034114,0.017157052323164376,0.06607186359218492
128,1456704108601870,0.08784050210100271,0.018512567027980164,0.07982534627567613
129,1456704108624871,0.07196899990598335,0.01995650769680546,0.09507679097339232
130,1456704108645874,0.054450888591017495,0.021146927881278053,0.10890528801325454
131,1456704108661874,0.04061045522493366,0.022036538842159167,0.12074646685247482
132,1456704108685724,0.035596880761979165,0.022793644903059497,0.13248806226587212
133,1456704108706179,0.042622416286646425,0.0236525738314976,0.14745224500362533
134,1456704108721912,0.061554470594179574,0.02479533944956865,0.16847277584671919
135,1456704108745914,0.08850324500417861,0.026328465903659722,0.19580775922095955
136,1456704108766915,0.11671732359808491,0.028329514183696575,0.2258563625149554
137,1456704108782654,0.1385860057812324,0.030867108439511633,0.25140211196990625
138,1456704108805381,0.14809439079562073,0.033922376535511625,0.2635363020853924
139,1456704108826371,0.14286715886110823,0.03725540957945349,0.2547793219670997
140,1456704108842154,0.12505452777423923,0.04036743701507285,0.22240521642853867
141,1456704108865160,0.10073733426839505,0.04269810812426938,0.17074106479541035
142,1456704108894547,0.07808126149723758,0.04405434854189862,0.11139186205778827
143,1456704108902243,0.06487329826832901,0.04508903675511405,0.06093264626074266
144,1456704108925245,0.06616712542514869,0.04754967216389744,0.036435155694760635
145,1456704108947247,0.08264206902715404,0.05404637385683575,0.05000153874627291
146,1456704108962246,0.11012684328151749,0.06722780368690918,0.10401849953169652
147,1456704108985484,0.14058799284870993,0.0884846865714059,0.1889217201920551
148,1456704109007688,0.16457363892655433,0.11661437984171356,0.2847404522320695
149,1456704109022694,0.1744998655861054,0.14717287217879138,0.36654930025764465
150,1456704109046473,0.16750028447904391,0.17322933461684023,0.412392526452995
151,1456704109067687,0.14643706633073547,0.1876503559341788,0.4108509878721026
152,1456704109084199,0.11848317919222137,0.1860394871105485,0.3650415007474736
153,1456704109105492,0.09201804886769148,0.16876532328369412,0.29105924268836125
154,1456704109127493,0.07346579620334939,0.14084359184625816,0.2113891672717823
155,1456704109144494,0.06551189621844647,0.10971348701039424,0.14629533115572113
156,1456704109165496,0.06712111207190148,0.08220899557207223,0.10708836752705392
157,1456704109187680,0.07479299204889706,0.062317733721468926,0.09391505725694191
158,1456704109208732,0.08415893406657038,0.05058479021845632,0.09823406322616257
159,1456704109225734,0.09129216445097554,0.04499155919660565,0.10801924997987551
160,1456704109246737,0.09352048629090352,0.042518576769050874,0.11299090580513557
161,1456704109267744,0.08980260770766602,0.04055903440557477,0.1078208864323315
162,1456704109285263,0.08080125276676325,0.03768355684899955,0.09262379907501987
163,1456704109306755,0.06868330453206045,0.03368767621417298,0.07133930423471906
164,1456704109328754,0.05653792775278946,0.02916562683838297,0.04927853694543732
165,1456704109345600,0.04737823212196374,0.02495203438253146,0.031012239167231438
166,1456704109366602,0.04301842976925517,0.02169167767047613,0.019195434128113944
167,1456704109388424,0.043378385269706346,0.01964308381841105,0.014325459388197855
168,1456704109404958,0.046641354427673115,0.01869099897404571,0.01513390940252687
169,1456704109426939,0.0502187514502345,0.018480213599229,0.019302838279296654
170,1456704109455941,0.0519944087060977,0.01858216301915942,0.02427384101555004
171,1456704109464976,0.0511684121790082,0.018634889761695108,0.027959357130260033
172,1456704109487451,0.048304032694616306,0.018429232734085647,0.0291905995979144
173,1456704109507961,0.04468729743132457,0.01793572297921835,0.027809945750296446
174,1456704109525204,0.04146779698030022,0.017274063567087727,0.024438296265405363
175,1456704109547174,0.039071902551293246,0.016630484589891067,0.020059262417294797
176,1456704109567965,0.03715379251849256,0.016145544420627368,0.015603854100817873
177,1456704109585666,0.035035873272123784,0.015822777270011055,0.011681808288236789
178,1456704109606973,0.03231771776439681,0.015514076738124978,0.00852412427200579
179,1456704109628975,0.029248293805315316,0.014998851430002604,0.006118311032658448
180,1456704109644976,0.026638285174048194,0.014114997308563025,0.004454347327626632
181,1456704109666976,0.025412054325499867,0.01286767393004629,0.0037626827963609063
182,1456704109688278,0.026116993083825688,0.01145839602557813,0.004628088885341264
183,1456704109707287,0.028681840685509944,0.010224631946772549,0.00791224029528122
184,1456704109733555,0.03251032189279043,0.009525141517136517,0.01449209132836204
185,1456704109748295,0.03678522957445182,0.009623954344221499,0.0248821377998151
186,1456704109765291,0.04077196460211432,0.010611607488842031,0.03884276431986563
187,1456704109787661,0.04397496097169772,0.01237197905174936,0.055100967272505685
188,1456704109810234,0.04614718379420158,0.01458510036836722,0.07132972292114075
189,1456704109825235,0.04726276881053661,0.016767331994804433,0.08451634650687126
190,1456704109847237,0.04755047875036925,0.018369272619232543,0.09175502504965648
191,1456704109876534,0.047577607588923744,0.01893726721857447,0.09131979627425456
192,1456704109885035,0.048278698764771144,0.018292041593823177,0.08367730781464842
193,1456704109906551,0.05081829009190442,0.01663855314434826,0.07199846328958097
194,1456704109929552,0.056248963506908424,0.014542097972923825,0.06180723050681171
195,1456704109945554,0.06502632704789947,0.012772995491283693,0.05964393501472144
196,1456704109966553,0.07655417855053308,0.01207777042466085,0.07093492293882674
197,1456704109990061,0.08902610281659899,0.01294400435461082,0.09760160627417148
198,1456704110005576,0.09979144950829479,0.015411413739629808,0.13628218529875194
199,1456704110026577,0.10622349389513763,0.018983726360803137,0.1782087785954728
200,1456704110049578,0.1067425547693637,0.02271114141740734,0.21142875687801396
201,1456704110065580,0.10151155455645375,0.02548884410940866,0.22500846408033692
202,1456704110087640,0.09247958734065294,0.02651639402168495,0.21358448888274334
203,1456704110109794,0.08276966500892279,0.025734338350059734,0.18008439956877084
204,1456704110125796,0.07569461165001606,0.024014205274347836,0.13517655724573963
205,1456704110146799,0.07379935104214704,0.022989027546580106,0.09359172793067339
206,1456704110169058,0.07822072504373409,0.02459121461230692,0.06888583668446158
207,1456704110191230,0.08843844174209671,0.030461984933659106,0.06876115868393318
208,1456704110206525,0.10237376637745303,0.04136827383707548,0.09265583944132919
209,1456704110228739,0.11682938105419856,0.05672512105465659,0.13231664615577862
210,1456704110251742,0.1282731238364884,0.07438554789335126,0.1749652349392235
211,1456704110266528,0.13383165654864432,0.09094189330168274,0.20782245581129546
212,1456704110289619,0.1321978224585961,0.10266402136235787,0.22235198618318208
213,1456704110311403,0.12410595051236743,0.10681904928167021,0.21668544908542334
214,1456704110326404,0.11211525494369055,0.10273735369894159,0.19533146678974084
215,1456704110349121,0.0996858495098261,0.09200241033612949,0.16639133155508073
216,1456704110371406,0.08988860039759984,0.0776525540552627,0.13770953545301864
217,1456704110386147,0.08430990536265068,0.06290503787013764,0.11393045378397633
218,1456704110409164,0.08260047852978793,0.050116375957554034,0.09578436555101186
219,1456704110433160,0.08279545553761823,0.040374385834007626,0.08146357857548464
220,1456704110447162,0.08222406544454347,0.033655851225910124,0.06876848749375242
221,1456704110469445,0.07861801794618405,0.029253330686658023,0.05660259175993229
222,1456704110491735,0.07097319500710249,0.026215474388169447,0.04521156315101906
223,1456704110506252,0.05986584063153554,0.023684934001344797,0.03549724299319028
224,1456704110529084,0.04717578872627671,0.021110685971787637,0.028145309892103322
225,1456704110550972,0.035371215836509796,0.018331997511748764,0.023127600603910316
226,1456704110565966,0.026628823631381967,0.015533059294154519,0.019734536328539463
227,1456704110589477,0.02211864218316423,0.013092898060880251,0.016988773607305083
228,1456704110611495,0.021720653662311185,0.01139092022791098,0.014173291455231692
229,1456704110626495,0.024235208312787065,0.010640119514964646,0.011218748500163488
230,1456704110649497,0.027918483546223165,0.010799758187326532,0.008784133023003966
231,1456704110671637,0.0310736603691988,0.011584697513137872,0.00800464239256685
232,1456704110686446,0.03248757586556065,0.012557379852477521,0.010024610958999657
233,1456704110710686,0.031630212584037344,0.01326679116581423,0.01551562974196391
234,1456704110731446,0.02863845191194697,0.0133862884407712,0.02436764179097402
235,1456704110746448,0.02415826812247245,0.012803514938105592,0.03565276672301898
236,1456704110769627,0.019129207136457684,0.01163614364093582,0.047840919251964986
237,1456704110791598,0.014571113173269486,0.010177808371981453,0.05914518427232868
238,1456704110806634,0.011396529006862215,0.008800659012800818,0.06784961869402964
239,1456704110828848,0.010256149781221684,0.00784774918000669,0.07254045563657663
240,1456704110851667,0.01143717329836906,0.0075469655838882365,0.07226689030786253
241,1456704110865639,0.014845895620147482,0.007972630385893863,0.06671024447029379
242,1456704110889699,0.020089592402395152,0.009067571600125118,0.05640042175958705
243,1456704110910747,0.026633706316145384,0.010715882598109773,0.04292500707085431
244,1456704110925748,0.03397156853542544,0.012832458056105889,0.02900286246773796
245,1456704110948742,0.041728706854437435,0.015423287849101592,0.01829042832510891
246,1456704110970956,0.04964884183542639,0.018580681609622722,0.01485811477439143
247,1456704110988523,0.05746753471329963,0.022407723818318077,0.0223831678954747
248,1456704111009214,0.0647413587530818,0.02690019142164219,0.04320624497408288
249,1456704111030987,0.07073866721373386,0.031833926604238706,0.0774583202293593
250,1456704111047987,0.07450236735843657,0.036706820938726153,0.1224895109361734
251,1456704111069297,0.07515517128496824,0.04077609962682843,0.17284530648197138
252,1456704111091583,0.07242028714330263,0.043217786836809054,0.22101650083269792
253,1456704111107602,0.06718541625642216,0.043404985852586654,0.25905837834047113
254,1456704111128887,0.06180426116031175,0.04124396201278759,0.28086950865802823
255,1456704111151689,0.0598076375672099,0.03743645794983862,0.28448810966621674
256,1456704111167663,0.06487408197955624,0.03349949654602148,0.273409702705873
257,1456704111189896,0.07928665103016215,0.03142546176595113,0.25596969744226283
258,1456704111211491,0.1025177765489858,0.03302410526664877,0.24250786502458818
259,1456704111228191,0.13073589614759773,0.03918964163762538,0.24120530396873074
260,1456704111249193,0.157686477312145,0.049441152909189635,0.25448966765690895
261,1456704111271406,0.17668467510680083,0.061984583121789685,0.27788157179067313
262,1456704111288587,0.18283043683861702,0.07427997319116157,0.3018808362820328
263,1456704111309344,0.17447308261789682,0.08384607023853481,0.3158284433665017
264,1456704111331415,0.15346693924671834,0.08896873753541826,0.3118548687166967
265,1456704111347134,0.12445036644063212,0.08912512587615148,0.2874258061267811
266,1456704111369136,0.09370246713654386,0.08514229577066182,0.24596893509116102
267,1456704111391375,0.06793633872473652,0.07917793388212467,0.19579732673731423
268,1456704111414368,0.053046394754587646,0.07448734415497191,0.14779022131957006
269,1456704111429368,0.052784658127360794,0.07478464823719407,0.11231804964369821
270,1456704111451369,0.06762377588015632,0.08306242605805556,0.09605111202003494
271,1456704111474608,0.09431128241158065,0.10010323820222504,0.09960699315786962
272,1456704111489339,0.12652217325025167,0.12338230124406502,0.11710099080211614
273,1456704111511551,0.15659933155532463,0.14718444231469044,0.13814492323825955
274,1456704111534594,0.17786186928195868,0.16427160773343227,0.15174946347618104
275,1456704111549364,0.1865984193026656,0.16855286626134242,0.1505471588696558
276,1456704111571355,0.18288534038576845,0.1575092900859909,0.13346726025527786
277,1456704111594546,0.16991446507126146,0.1331502142783426,0.10569996614373653
278,1456704111609618,0.1523114110101976,0.10108931779520938,0.0761180012133808
279,1456704111631514,0.13436666051495888,0.06836233785929313,0.05351247543551187
280,1456704111654329,0.11889265558880692,0.04111344485104332,0.04336354020260305
281,1456704111669294,0.10690668269431619,0.02304261010132868,0.04631495722193662
282,1456704111691799,0.0979639713977582,0.014940474632448035,0.05858514366939879
283,1456704111713605,0.09080083829548687,0.015175101725384867,0.07381188522557122
284,1456704111728892,0.08395946612899316,0.02074320335542543,0.08548656592940186
285,1456704111751644,0.07626637080421385,0.028416972880318463,0.08911105610813043
286,1456704111773615,0.06722229606893002,0.03559766462874244,0.0834346326077009
287,1456704111789133,0.05727851299275379,0.040693273005991314,0.07051769163058405
288,1456704111811642,0.04778070430371329,0.04306507073458322,0.05476249664541184
289,1456704111833930,0.040430273776818335,0.042733888533985104,0.04132164503220635
290,1456704111848645,0.03645235135957419,0.04006312981138294,0.034426567219043816
291,1456704111870653,0.03591495001450062,0.035561581111252134,0.036174124481471066
292,1456704111894734,0.037582437583535785,0.029829774434594343,0.046134733990170214
293,1456704111910735,0.03939235871344572,0.023576449093145706,0.06181592047895551
294,1456704111930738,0.03932053968643944,0.017606258963151565,0.07966941723474977
295,1456704111954738,0.036211791000891905,0.01272789369721712,0.09615620212602369
296,1456704111970739,0.03020050922129626,0.009604938258972474,0.10847153761111876
297,1456704111991262,0.022594908629921008,0.008613203717846542,0.1148026810738918
298,1456704112014779,0.01537403970780334,0.00976168275366628,0.11426433497837521
299,1456704112030779,0.010568347113327542,0.012704521180757742,0.10677768265508106
300,1456704112050788,0.009733287385840252,0.016842199347407952,0.09309097012165528
301,1456704112074782,0.013595818183436525,0.021482948844722644,0.0749551724774946
302,1456704112090094,0.02187598723194801,0.026010800216536876,0.055284510689033846
303,1456704112111627,0.033281405889423896,0.03000095210041485,0.03805398445359262
304,1456704112134660,0.04568567709296775,0.033248432088958814,0.027767538101337214
305,1456704112150587,0.05649158867104557,0.035718118901135694,0.02853610780503154
306,1456704112170593,0.06315124139258692,0.03745562115795853,0.04301320782754881
307,1456704112193918,0.06378034784608455,0.03850380963655226,0.07151437160113253
308,1456704112210925,0.057755683591464956,0.03885379345733637,0.11156639260419977
309,1456704112231949,0.04612476745795647,0.038439698145340345,0.15799846042718435
310,1456704112253969,0.03163281626945175,0.037178512652452485,0.2036233457430648
311,1456704112270962,0.018249997327691784,0.03505629599927326,0.24055766404807885
312,1456704112292438,0.010255623863566078,0.032251885797808064,0.26215474405850536
313,1456704112313953,0.011101120576264589,0.02925685133930022,0.2652382114360525
314,1456704112331125,0.022343025321514613,0.02691221398662363,0.25187915448145504
315,1456704112351147,0.04293335832369197,0.02628128124558743,0.22966247827790548
316,1456704112376227,0.06913064053901848,0.028345171518623133,0.20966968568844155
317,1456704112391164,0.0952171047164083,0.03362028612046576,0.20244590106748314
318,1456704112411619,0.11498633255275831,0.041878712595586814,0.2135487278176701
319,1456704112434650,0.1236052474888574,0.05212924581619182,0.24088475314983457
320,1456704112450647,0.1191579562854289,0.06288475800772361,0.2752521973315412
321,1456704112471546,0.10322814626201315,0.07258617075621658,0.3038055406903999
322,1456704112494483,0.08031818277851681,0.07999005916607885,0.314772657794992
323,1456704112510649,0.056426089661445536,0.08440245494147228,0.3014557163433982
324,1456704112531615,0.03735148116539605,0.08578133706120057,0.264169406606518
325,1456704112554609,0.02723521780472271,0.08480720704132307,0.20976844390717375
326,1456704112569498,0.027662217750252918,0.08296875377054057,0.14933403546297563
327,1456704112591584,0.037516889660081154,0.0825559953280488,0.09507193111200068
328,1456704112613612,0.05363300871486744,0.08630093938694477,0.0573751147687544
329,1456704112629613,0.07203687384584419,0.09643714765034445,0.04258297437538995
330,1456704112651628,0.08930046825027495,0.11331378682979651,0.05167548277632143
331,1456704112673615,0.10342556589686779,0.13425630223591004,0.080105992042274
332,1456704112690363,0.11393592992974413,0.1536179876281123,0.11892831062323886
333,1456704112711149,0.12130570247666964,0.16448291629289152,0.15707787393233513
334,1456704112734165,0.12614982758764784,0.16144236510650803,0.1842336764819114
335,1456704112749868,0.12861674291380737,0.1430405919089502,0.1934141872594357
336,1456704112770867,0.12828451288167045,0.11255502648254764,0.18253060626753043
337,1456704112794594,0.12462673055185443,0.07672506757854036,0.15450056264477013
338,1456704112809600,0.11775186035911707,0.04318220097252056,0.11602390141695855
339,1456704112832600,0.10884149346262997,0.017892111022399147,0.07551352345388841
340,1456704112854601,0.09988119206914557,0.003656171231727005,0.040836595468043815
341,1456704112869603,0.0928317492002356,0.0,0.01747673600718485
342,1456704112893560,0.08879845125566808,0.004131436210029156,0.007546190227262211
343,1456704112913953,0.08768695098119425,0.012355516569330345,0.00981115941284192
344,1456704112937097,0.08845774659173995,0.02136327135469009,0.020602723679589034
345,1456704112952837,0.08972278136424883,0.029017095885451417,0.0352462832194682
346,1456704112974141,0.09026798495111629,0.034515736801079534,0.049520499691768465
347,1456704112995883,0.08922766836352382,0.03806024821266124,0.06068921250723073
348,1456704113012884,0.08597836310660618,0.04029286901137341,0.0678297180943726
349,1456704113034221,0.08005543158994474,0.04179346057084605,0.07145295205495505
350,1456704113057222,0.0713066496909115,0.04280577110157132,0.07268412574664594
351,1456704113072887,0.06019647900529101,0.04321307424971823,0.07243265456858643
352,1456704113094388,0.04797594288742469,0.042681196660674194,0.07093580243837783
353,1456704113116596,0.03650756283397004,0.040862826218408345,0.06782425712194147
354,1456704113132596,0.027772217164871986,0.03757811801495374,0.06257309545322927
355,1456704113153603,0.023273262322580736,0.032923408650216285,0.05504034814759033
356,1456704113177668,0.023596129676780445,0.027301049819265504,0.04581992744142425
357,1456704113193109,0.028302179121573335,0.02138978047665225,0.03627216592550791
358,1456704113214118,0.03618022926097507,0.016069783103489527,0.028240329706308465
359,1456704113237422,0.045708295245575625,0.01229610224911727,0.023575312775983417
360,1456704113253120,0.055491326219262706,0.010913985593531359,0.023666643064476956
361,1456704113274128,0.06449923857144954,0.012441997352266478,0.029178856940322892
362,1456704113296361,0.07206729298230448,0.01688979350072075,0.040079055386540115
363,1456704113313363,0.07772463967156357,0.023691172467208373,0.05585827714254636
364,1456704113336545,0.08096799692168538,0.03179895871271615,0.0757300485822496
365,1456704113357364,0.08113927665750728,0.03991927706083359,0.09863848797049528
366,1456704113373365,0.0775671753493822,0.046802743993579546,0.12309283455223649
367,1456704113394373,0.07000549827528373,0.05149952813035043,0.14703511521407642
368,1456704113416379,0.05916914137048858,0.05352253462011878,0.1680245221911589
369,1456704113432380,0.047016608857079756,0.052911058075624365,0.18392562048497152
370,1456704113453386,0.03651540728698834,0.05021301990522672,0.19401985149258832
371,1456704113477525,0.030897646189680057,0.046398322544041096,0.20009709286532423
372,1456704113493492,0.032661364048135404,0.04269055011595062,0.206787039206834
373,1456704113514589,0.042672920004689925,0.04029025466864363,0.2204039480598643
374,1456704113537616,0.059706601896293794,0.04000159563202163,0.2461507656726744
375,1456704113552590,0.08065851995142449,0.04187838414104187,0.2846370373140138
376,1456704113573879,0.10145096658781785,0.045114368951876385,0.32968387147772893
377,1456704113597411,0.1183018226392737,0.048384139556678994,0.36927784333731
378,1456704113612412,0.12876513368583126,0.050599935128232035,0.38986797587245264
379,1456704113634577,0.13203836352941734,0.05168612289592679,0.38200539824830887
380,1456704113657613,0.12852257362878267,0.05279783056949965,0.3443432892878163
381,1456704113673535,0.11914354262610503,0.055683243462123555,0.2839983908938545
382,1456704113694212,0.10501473596153882,0.061497472251895904,0.21339276423099107
383,1456704113717609,0.08758744957734471,0.06985253316626973,0.14547870390057807
384,1456704113731493,0.06895392622345438,0.07881710813851335,0.08974385133182945
385,1456704113753500,0.051897639508087436,0.085967258080936,0.050564568323230454
386,1456704113777608,0.0395578072543645,0.08985604697913643,0.028016709385625702
387,1456704113793663,0.034819535223302514,0.09093780363866709,0.020069912692165664
388,1456704113815793,0.0395987186763615,0.09130418439632819,0.024737018326446546
389,1456704113836801,0.05418916152880254,0.09335683950685138,0.04117302242890737
390,1456704113852795,0.07688193347992364,0.09822762412195261,0.06946937974480383
391,1456704113875796,0.10408101960666773,0.10490631488338595,0.10951655354479771
392,1456704113897040,0.13099494363132308,0.11058833626303612,0.15960671518422304
393,1456704113912810,0.15269759509180272,0.11203275049619058,0.21545817732163516
394,1456704113935811,0.16516001092237473,0.10715693940070736,0.2701605188771881
395,1456704113956855,0.16598502397617365,0.0960000810834002,0.3152131694340163
396,1456704113972813,0.1548871323662196,0.08061566140067786,0.3424466617521969
397,1456704113995822,0.1340183266748263,0.06411571124671875,0.3463213771637774
398,1456704114017124,0.10792914322044501,0.04951174401059502,0.3259529960884584
399,1456704114040829,0.08274568433428418,0.03892394112254111,0.28616941464133455
400,1456704114055867,0.06448703382012531,0.0333343571807761,0.23698095589806967
401,1456704114076868,0.05711494155588658,0.032710933475921425,0.19119653506757894
402,1456704114093346,0.06125242970668481,0.03624326819543756,0.16064055987083217
403,1456704114116515,0.07419732865119608,0.04256110889988048,0.15227758821692075
404,1456704114137509,0.09113627241016303,0.049959849496066244,0.1659194980952518
405,1456704114159504,0.10686049697541093,0.056686407370314454,0.19459093616748352
406,1456704114176507,0.11718414896534388,0.06126016649139822,0.22733082639847657
407,1456704114197573,0.11965584872255643,0.06273835451369479,0.25308895364488576
408,1456704114219574,0.11365826157325466,0.06084999945028935,0.2641036265257471
409,1456704114235575,0.10021194369219281,0.055979645502467014,0.2576742351923855
410,1456704114256825,0.08166977689676035,0.04902401749910519,0.23606725729154282
411,1456704114278583,0.06126096964040018,0.04115970506518636,0.20495669088928542
412,1456704114296084,0.04239248421117414,0.03356579344075658,0.1711338818109429
413,1456704114316841,0.027787165116569007,0.027157452781043232,0.14028361619927424
414,1456704114338793,0.018756261127999812,0.02239936288854972,0.11549834148590285
415,1456704114355593,0.014951493376371828,0.019258064921710977,0.09691881703954805
416,1456704114376846,0.014746082761156082,0.017307741635726324,0.08249280150114323
417,1456704114398636,0.01607947504164516,0.015945763134934243,0.0694611221163673
418,1456704114415605,0.017372613790688024,0.014637578642689135,0.05596033650069349
419,1456704114435809,0.018112630923669253,0.01311034031629046,0.04214306347938948
420,1456704114459609,0.018903057066190745,0.01144102113551411,0.03042933237161138
421,1456704114475609,0.02104317114284391,0.010020896053711903,0.024821526194758206
422,1456704114496621,0.025886002319236507,0.009413205786046666,0.0295324944160194
423,1456704114519628,0.03425441655711424,0.010148789140763361,0.04739062636332007
424,1456704114536629,0.04609046851488905,0.01252139389624495,0.07852939237180848
425,1456704114557631,0.060365553763286006,0.016446603613117332,0.11975218831054237
426,1456704114578918,0.07519772390604441,0.02143312169933715,0.164777963169189
427,1456704114595143,0.08814875910901898,0.02668458369948638,0.20540051790262
428,1456704114617652,0.09672338402905949,0.03131064005977756,0.233415834612346
429,1456704114640653,0.09903808872675537,0.03458376862166578,0.24291411969330823
430,1456704114654654,0.09445977777106764,0.036144373267737805,0.2322211566171997
431,1456704114677655,0.08390107679818146,0.036059037566039835,0.20462922414815532
432,1456704114698953,0.06957621153064414,0.03470389122046509,0.16738039668881147
433,1456704114714676,0.05433696509221,0.032557914844291526,0.12917823477375925
434,1456704114737676,0.040965176433983654,0.03006190917780231,0.09732855404809217
435,1456704114759678,0.03175176373782806,0.027640565431831295,0.07579667658777307
436,1456704114774679,0.02838032781405524,0.025821998844742542,0.06485779098798146
437,1456704114797702,0.031868722533186344,0.025267004715628604,0.06212559503380725
438,1456704114818989,0.04235875223867453,0.02657023480035764,0.0642082323223194
439,1456704114834702,0.05880487623228469,0.029893713190447972,0.06822594040299698
440,1456704114857703,0.07881467428538957,0.034674294373808194,0.07270705470570313
441,1456704114878711,0.09887453066943346,0.03965616595334655,0.07775477520338366
442,1456704114895215,0.11501969783180524,0.043324411725413514,0.08470831881932041
443,1456704114917723,0.12381623184799857,0.044576790043981816,0.09560562931979322
444,1456704114938726,0.12337990048123489,0.04331702112771919,0.11254848886043789
445,1456704114954726,0.11407695548286188,0.040670090447888295,0.13689707769748205
446,1456704114978727,0.09856241757910572,0.03869763289568431,0.1683749034157852
447,1456704114998958,0.08097781976907799,0.03972450723767066,0.20444981450576513
448,1456704115014751,0.06548935985780653,0.045535528994255406,0.24037503190252937
449,1456704115037752,0.054762965704387385,0.05670460732766103,0.27001846775623967
450,1456704115058861,0.04911867721041495,0.0722437814301032,0.2873344827508764
451,1456704115075014,0.046779199612494854,0.08968813297022231,0.2880840954965074
452,1456704115097776,0.04503207477769391,0.10566027523190229,0.27117720967645675
453,1456704115119063,0.041679048677151234,0.11684482276751378,0.23905347394248933
454,1456704115134781,0.036083236868887154,0.12115006756968179,0.1970134804436506
455,1456704115157781,0.029406128533514524,0.1186878518987897,0.15200462488802077
456,1456704115179081,0.02406081049115847,0.11213657516817387,0.11148946061249405
457,1456704115195793,0.022746226133922496,0.1061437875111184,0.08258184456875893
458,1456704115217801,0.027506126010976243,0.10571684311860696,0.07113284926146302
459,1456704115239097,0.03911797615965473,0.11401329164634648,0.08045355782327127
460,1456704115254803,0.05692202457006812,0.13042916372714883,0.10992697269807361
461,1456704115277804,0.07903826832624741,0.1500841848871006,0.15434862394902008
462,1456704115299109,0.10278281062847824,0.16536415168073712,0.2048003275928218
463,1456704115314823,0.1250494234872541,0.16909059511494937,0.2510738568378754
464,1456704115337827,0.14261213218795596,0.1577794296560799,0.28468390518161235
465,1456704115358827,0.1526177844280155,0.13322162171857221,0.30111305900689755
466,1456704115374845,0.15350426721001403,0.10156408626820045,0.30040182101443536
467,1456704115397840,0.1460103718024398,0.0705292337893203,0.28613576361225174
468,1456704115419109,0.13344032960504446,0.046365180160787556,0.2636407049980304
469,1456704115441849,0.12064120206525905,0.032014662229069256,0.23837944335433298
470,1456704115457844,0.11206511476953407,0.027062673476721536,0.21512789413624814
471,1456704115479012,0.1099338385432616,0.028985762914739945,0.19778000030041
472,1456704115502156,0.11342717495600936,0.03471547624550614,0.189121585222221
473,1456704115518140,0.1192438875174061,0.0417097632328144,0.19010223143500768
474,1456704115539442,0.12322569782168717,0.04829416422266717,0.1989248264145539
475,1456704115563142,0.1222246157242089,0.053521329183562415,0.21089044466481813
476,1456704115578143,0.11529397313191818,0.0569273966245465,0.21965883887942397
477,1456704115599161,0.10374047551645821,0.05839668563371625,0.21958520812159152
478,1456704115622162,0.09027224017701488,0.05812509079217991,0.20797374073344127
479,1456704115638164,0.07785414660572522,0.05657123071745162,0.18608445484268774
480,1456704115662163,0.06875900984325287,0.05431350670211026,0.15841332982464837
481,1456704115682184,0.06400818670142691,0.051821655395315865,0.13063174876212605
482,1456704115706196,0.06323255976974751,0.0492401537289982,0.10719595354581093
483,1456704115721191,0.0649236833005347,0.04631729101290408,0.08976396561999123
484,1456704115742238,0.06697481490312489,0.04255938677459441,0.0771153076660714
485,1456704115758199,0.06735601592447092,0.03756064878351351,0.06646475135567842
486,1456704115781230,0.06475340326854813,0.03134182398276125,0.05534567993934797
487,1456704115802413,0.0589879335321477,0.024513698178506974,0.043041031823369054
488,1456704115818251,0.051035457995381006,0.018175003456588793,0.030940303211426105
489,1456704115841256,0.042594109292418775,0.013590613904391643,0.02185381219851605
490,1456704115862256,0.035377149281421105,0.011792665420377848,0.01876422070945587
491,1456704115878465,0.03047552911127382,0.013261409867760808,0.023571451289791417
492,1456704115900462,0.02808538787831133,0.017786479111549378,0.03624150339353107
493,1456704115922445,0.0276659393441967,0.02453059712175546,0.054583912879702656
494,1456704115938347,0.028349427871312925,0.03225686206534322,0.07470208606438504
495,1456704115961444,0.029328576092409776,0.03964392017702327,0.09198322415902645
496,1456704115982397,0.03004785819465575,0.04559202569950222,0.10235221959967541
497,1456704115997456,0.030217308568398892,0.04942381700385762,0.10343593829889661
498,1456704116021462,0.02977544754850587,0.050923492315473086,0.09527671859098316
499,1456704116041482,0.02887938057467556,0.050231028899295614,0.08032081892491226
500,1456704116057464,0.027895499012686637,0.04767290370230728,0.06262654465067337
501,1456704116080466,0.027341175330625835,0.04362410565899626,0.04654915180448165
502,1456704116101518,0.027791327381546264,0.03845590119033947,0.03540177322565808
503,1456704116117478,0.029807058004458653,0.03256594731995369,0.030593134385559023
504,1456704116140479,0.03390865916783332,0.02644631326913959,0.03150138615149602
505,1456704116161516,0.04054758968165358,0.02073307852591771,0.03602698345218802
506,1456704116177481,0.05000000182811274,0.016197011894884438,0.04154814101732879
507,1456704116200501,0.062141378270016104,0.013668241535943195,0.04593452633666845
508,1456704116221507,0.07615872067439057,0.013918883303187012,0.04831297045747958
509,1456704116237503,0.09035517532294944,0.01753494325952468,0.049356348090312765
510,1456704116260504,0.10222644186448453,0.024788157675056027,0.05096325089556958
511,1456704116282060,0.10891647813342825,0.035498120057107875,0.055355739847226776
512,1456704116297561,0.10802906981906703,0.04889589071395009,0.06387582887621919
513,1456704116320567,0.09860759397893751,0.06355877055012694,0.07600144993311428
514,1456704116341831,0.08191247404160447,0.07752153280497716,0.08911218514640538
515,1456704116357569,0.0615369720206888,0.08863513094287222,0.0992233329834963
516,1456704116381570,0.0425910683075728,0.09515657187191806,0.1024531272070255
517,1456704116402519,0.03014638097105103,0.09644936505062306,0.09666274416553146
518,1456704116418298,0.02757316213981843,0.09356167375471527,0.08263541895774511
519,1456704116440565,0.03550140671044877,0.08935225256366545,0.06431374756959869
520,1456704116464299,0.05185349472043812,0.08784793898061091,0.047930719073085624
521,1456704116478444,0.07288990105225819,0.09276673328379101,0.04027003541084138
522,1456704116499734,0.09472105911260716,0.10563474265271547,0.046636722133014
523,1456704116521776,0.11452623542785736,0.12441636178185955,0.06923700339084422
524,1456704116537959,0.1309308497482511,0.1436293377172585,0.10647058533359544
525,1456704116559738,0.1435039738634713,0.15625927195891348,0.15324751545975923
526,1456704116581776,0.15184725972652593,0.15670497389366908,0.2021146526212339
527,1456704116598272,0.155006487101119,0.14324948549696465,0.24487748078353863
528,1456704116619780,0.15178322141376632,0.11877905340779511,0.27445828883444756
529,1456704116642781,0.14189336652436574,0.08951234551700929,0.2867261945131476
530,1456704116663782,0.12712951026037747,0.06256454827067016,0.28184332598233414
531,1456704116679783,0.11145256926476076,0.04356425526375091,0.2644631163413254
532,1456704116702814,0.0996487892604835,0.035202630199608134,0.24229221547123783
533,1456704116724005,0.09526876490867585,0.03696474887332115,0.22328851838209568
534,1456704116740045,0.09904277631439146,0.04582605992497712,0.212689768327358
535,1456704116762814,0.10854773974196784,0.05751782619703702,0.21132113146763673
536,1456704116784238,0.11913352028162191,0.06793060743738039,0.2158698021007728
537,1456704116799569,0.12560351260258829,0.07422560717344684,0.22067481045565834
538,1456704116822572,0.12399743349016212,0.07532522626764279,0.21997778061231427
539,1456704116843580,0.11287647508341488,0.07171563438556382,0.2097368882371511
540,1456704116859576,0.09369303468196997,0.06479426310862094,0.18858866163457638
541,1456704116883367,0.07015506140518603,0.05614004077171542,0.15795051890796474
542,1456704116904013,0.04687721572070099,0.04701260461874322,0.12148258873570246
543,1456704116919801,0.02786583900145304,0.038193754412929964,0.08417945828172221
544,1456704116950803,0.01540150799127417,0.030100206008663373,0.05129587036850876
545,1456704116964050,0.009676958134971233,0.022998903210051297,0.027251517855741685
546,1456704116979806,0.00921529131991028,0.017163052783556298,0.014695873223899446
547,1456704117004609,0.011775063779200281,0.01289235354849975,0.013970842914575957
548,1456704117023616,0.01529164506187757,0.010424213930828326,0.023153047294755938
549,1456704117039611,0.018479060952672426,0.00982093191707305,0.03867758373529098
550,1456704117062613,0.020955914129264737,0.010909724481653957,0.05634512405780887
551,1456704117084193,0.023001062871043348,0.013305841630872513,0.07238541050071175
552,1456704117099927,0.025163776309611998,0.016502460859224414,0.08423777771371502
553,1456704117122928,0.027930478566305282,0.019985074017877455,0.09083159692175904
554,1456704117144213,0.03153651361571465,0.023327120326366364,0.09236549326508996
555,1456704117159932,0.03589113582383763,0.0262419733297145,0.08978389115548582
556,1456704117182931,0.04055064301228987,0.028588704527953496,0.08422858725604605
557,1456704117203454,0.04474080064635026,0.03034223418540373,0.07667945992535617
558,1456704117227449,0.04749077011400788,0.031543223409985555,0.06785583186614208
559,1456704117242450,0.04790301964419278,0.03224506948326068,0.05831855747099452
560,1456704117263452,0.04547805865028175,0.032474152959377486,0.048642117291405045
561,1456704117280455,0.04033855686473175,0.032212974659404196,0.039517654468089726
562,1456704117303403,0.033222183162193046,0.03140730063324805,0.031700720122752477
563,1456704117324404,0.02523910404006589,0.029993634285470805,0.025828801097525753
564,1456704117340381,0.017542592808273423,0.02794231335694815,0.022246695553021247
565,1456704117370416,0.01111293131247625,0.025306886332279625,0.020993452544240378
566,1456704117384366,0.006749268103788526,0.022259712451007475,0.021987771432702294
567,1456704117399455,0.005191143040029688,0.019088907403013958,0.025284559832838602
568,1456704117422489,0.007189494380287985,0.01614509597737267,0.031192586442686798
569,1456704117443471,0.013374052442996769,0.013753909418691729,0.0401055700094085
570,1456704117459466,0.023896372135537563,0.012136781865197097,0.05207117325055451
571,1456704117483466,0.03800639254129074,0.011391928573096278,0.06630820787665911
572,1456704117507692,0.053846247670876105,0.011564781345897812,0.08098157767797662
573,1456704117519694,0.06870129654032094,0.012784243971315262,0.09348527630431612
574,1456704117542694,0.07971313155036826,0.015388746605129058,0.1012503318921314
575,1456704117563696,0.08477809846550004,0.01995236113520619,0.10277561088593799
576,1456704117579698,0.08322924147528185,0.027154713699355213,0.09836549912776606
577,1456704117602328,0.07600046290497091,0.037496895068640144,0.0901175698821012
578,1456704117625329,0.06521112143273802,0.05092776789462392,0.08104442788104932
579,1456704117647330,0.05336637865374962,0.06650715228860063,0.07368406200671916
580,1456704117662368,0.04255075380096823,0.08228802166921992,0.0689104575377237
581,1456704117686316,0.03400358256706955,0.09560871872108008,0.06565320804327958
582,1456704117700317,0.028257241819252925,0.10388151795630086,0.06178744481875065
583,1456704117722561,0.025689859058203413,0.10572434142604338,0.05579480220850294
584,1456704117745563,0.027084965746090123,0.101998791073387,0.04833498119152068
585,1456704117759563,0.033748876030007535,0.0961600540153724,0.042867856214330265
586,1456704117782565,0.04696463614217057,0.09344403015507191,0.04488124995059066
587,1456704117805952,0.06698566989459753,0.09887043418572423,0.05988002379793711
588,1456704117819953,0.09215701993183885,0.11471977357652614,0.09085182002098176
589,1456704117842956,0.11880938987687313,0.13870887516818764,0.13625810066582575
590,1456704117865956,0.1421968173214447,0.16406870840058357,0.18953862148015074
591,1456704117879957,0.15815042043181832,0.18187972705196095,0.2406122246501844
592,1456704117903075,0.1647010791138475,0.1847270971795183,0.2790597646806998
593,1456704117926076,0.1629621685591955,0.16987822720287094,0.29786483958183185
594,1456704117947078,0.15694334169808985,0.14040915037418084,0.296102228082359
595,1456704117963079,0.15233760396976137,0.10384558568844816,0.2791786852881166
596,1456704117986103,0.15457908905380832,0.06914085801408607,0.25632506003943306
597,1456704118007393,0.16676721199810343,0.043459704218454104,0.23658156418823262
598,1456704118023399,0.18830164714019115,0.030074293035318504,0.22544607766604713
599,1456704118046339,0.2148924476139724,0.027978949603422013,0.22381481222138536
600,1456704118066348,0.2399725903941844,0.03304362710937136,0.22922267881390473
601,1456704118083394,0.25690396013640043,0.04000500476732446,0.23806570752590103
602,1456704118106327,0.2610859549576324,0.044453535503359266,0.24736709066349494
603,1456704118127395,0.2511665104407884,0.044148438338479604,0.2554056351529983
604,1456704118143102,0.2289736318632279,0.03935370509777268,0.2613293614623315
605,1456704118166103,0.19842207005772666,0.03228121088782566,0.26430114690695855
606,1456704118187357,0.16413125852986604,0.025993103722692514,0.2628030825502312
607,1456704118202506,0.1304283759688998,0.02319301011647775,0.2545811555170509
608,1456704118225507,0.10089494026012756,0.025286525996261685,0.23739346322089838
609,1456704118246509,0.07817598286057106,0.03198761641473779,0.2103069817692333
610,1456704118262509,0.06378180957540802,0.041586978753863794,0.17492990732910418
611,1456704118286304,0.05793867655421257,0.051767164799229985,0.13586431138621666
612,1456704118306967,0.059782525391590874,0.06061606643038766,0.09993623887611215
613,1456704118322739,0.0680715261120637,0.06738879465235767,0.07433683148623114
614,1456704118344740,0.08217865949219431,0.07268120490947999,0.06440357950429748
615,1456704118367048,0.10274891564466014,0.07795810165676528,0.07202370058778512
616,1456704118382742,0.13141774038206738,0.0846748490606514,0.09535384796106118
617,1456704118411883,0.16946622515589582,0.09339426768948644,0.12985863441927736
618,1456704118426877,0.21596869548194436,0.103276600294048,0.17000155289770577
619,1456704118442877,0.26643641511321786,0.11215353977938346,0.21071091408335002
620,1456704118464879,0.3128513331524064,0.11716972785304185,0.24808997281594355
621,1456704118486885,0.34533686686238274,0.1157636226303881,0.2794171221263024
622,1456704118502891,0.354925127786778,0.10663221429342684,0.302832147708691
623,1456704118524892,0.3364265208642096,0.09032565975943213,0.31704750784674357
624,1456704118547894,0.2904494067909673,0.06924970952418083,0.32116366859618856
625,1456704118562894,0.2239620791637891,0.04707367848853946,0.3145356704493408
626,1456704118586091,0.14921017650986407,0.027769094022968482,0.29674607218779964
627,1456704118608079,0.08122035467153045,0.014636146543283036,0.26787346364085823
628,1456704118623067,0.03447683244895511,0.009643265182300229,0.22912197508401463
629,1456704118645095,0.019548270275694255,0.013233873341735557,0.1835116279996701
630,1456704118667874,0.04044368433536958,0.02454832717891971,0.13607780512981058
631,1456704118682875,0.09336272627335034,0.041873404508722276,0.09320446597028188
632,1456704118704669,0.1672967506730966,0.06310615921675128,0.06122479554419522
633,1456704118727671,0.2465410196349462,0.08608407027725057,0.04484184549958125
634,1456704118742672,0.31458387278835637,0.10874687377974471,0.045949240560096534
635,1456704118764674,0.35828910008450354,0.12919460773505578,0.06317471694541517
636,1456704118787962,0.37111632235275094,0.1457239869728866,0.09221345158027858
637,1456704118803445,0.3544165218458332,0.1568671647384926,0.1268581194239383
638,1456704118824277,0.3164087741202898,0.1614230009726714,0.1604881126243433
639,1456704118847278,0.26911954131735966,0.15852152331921554,0.1876366532790093
640,1456704118862442,0.224279190753913,0.14780819831221345,0.20519344516940757
641,1456704118892290,0.18970526177702673,0.12975694584211153,0.2128830304524695
642,1456704118907797,0.16763338771740235,0.10596705247546104,0.21288308943997425
643,1456704118922798,0.15557430992324806,0.0792401612063446,0.20874818102074397
644,1456704118944800,0.14899437519754943,0.053327665225307505,0.20405196277323864
645,1456704118968801,0.1442522851284545,0.03236803238649928,0.20122144542610015
646,1456704118982800,0.14030265121655655,0.020099372188153577,0.20089831078989578
647,1456704119004866,0.13855638492300176,0.01897808355542768,0.20195335088211974
648,1456704119033837,0.1413821110137002,0.02941562092003013,0.20210782537372474
649,1456704119049034,0.15040528624555838,0.04940695562908658,0.19894518700908734
650,1456704119065076,0.1656373178773093,0.07477068160612664,0.19089860901856953
651,1456704119088286,0.1856918978978865,0.10002957262572422,0.1777375444987904
652,1456704119109552,0.20854883592411574,0.11970537073243329,0.16034635269919328
653,1456704119124552,0.2321023766551426,0.12961886107578074,0.14006813034146043
654,1456704119148555,0.2541349677220334,0.12779288192848712,0.11815667073957191
655,1456704119170554,0.2719434649504734,0.11474755187132755,0.09569250547794254
656,1456704119184554,0.2821427626731211,0.0932212869447863,0.07391765016817324
657,1456704119208256,0.2810627414370862,0.06750180773789344,0.05474527781744525
658,1456704119228990,0.2658194028549328,0.04256409231455608,0.0412602640005249
659,1456704119245251,0.2357709126070153,0.02315517156323063,0.03803689266558752
660,1456704119269261,0.19376388199618302,0.012929835338348804,0.05091763881567177
661,1456704119289212,0.14646743010057386,0.01375168553479825,0.08581620231456859
662,1456704119304223,0.10333284665518672,0.025288047586795554,0.14648015469442766
663,1456704119328334,0.07425847455639827,0.045001540230594675,0.2318712383783089
664,1456704119349227,0.06659940729718714,0.06857789093108863,0.3343652880670429
665,1456704119365228,0.08248051307121808,0.09075914465007802,0.4398863565950899
666,1456704119388171,0.11740084835156288,0.10648293474664602,0.530378346954274
667,1456704119408883,0.1608797104289523,0.11213764268997588,0.5880785710262951
668,1456704119424668,0.19931879196315924,0.1066256969099817,0.6003456498961675
669,1456704119447670,0.22035184700323424,0.09185751730518388,0.5635600621198349
670,1456704119468677,0.21709147346148241,0.07239386726998408,0.48485514504403066
671,1456704119484672,0.1904609084856108,0.054242511169167,0.38100762377708525
672,1456704119507407,0.14853829129653232,0.04316163118260186,0.2745823524885341
673,1456704119530409,0.10323038939491373,0.04302899352742533,0.1882732647265177
674,1456704119544410,0.06583600498642747,0.05479516696576269,0.13910869569111792
675,1456704119567410,0.04341878728131258,0.07629186605282605,0.1344277819446337
676,1456704119591342,0.037260929032512755,0.10286208380621935,0.1709684130765506
677,1456704119605075,0.043571101776391605,0.12857101419209319,0.2371689969121125
678,1456704119628079,0.0557558680280343,0.14768164649970797,0.3175112949183609
679,1456704119650862,0.06718603462087401,0.15606244843555012,0.3970766256926937
680,1456704119664862,0.07340192795030068,0.15219432282392203,0.4646809612864343
681,1456704119688153,0.07304504605659551,0.13749864959875693,0.513794850716336
682,1456704119711163,0.06743377811859973,0.11585004796863886,0.5415233289993439
683,1456704119726164,0.059329324304612956,0.09235543764894577,0.546757366013495
684,1456704119748166,0.051670499525871216,0.07174500959931407,0.5288652124474245
685,1456704119771167,0.046807685931006905,0.056939078736876904,0.48785445260017146
686,1456704119792251,0.046315734084589104,0.04835768800995456,0.4259636207385972
687,1456704119807753,0.05111576219916055,0.044235033587666936,0.3495837676130367
688,1456704119830755,0.061515764282289394,0.04173124158581163,0.269894636641707
689,1456704119844756,0.07693840940780675,0.038292216911620505,0.201080427423981
690,1456704119868756,0.0955002539092287,0.032687156596522306,0.15633275550319328
691,1456704119890762,0.11395712922471499,0.025403747795905027,0.14328794860332728
692,1456704119904775,0.128460451162093,0.018394276784549676,0.16114181647549405
693,1456704119927776,0.13603077807861633,0.014368303434864954,0.20097131070639287
694,1456704119950777,0.13604327482723244,0.015890814733216813,0.24915129007496895
695,1456704119971779,0.13082566997277398,0.024536673747191724,0.29219609931266805
696,1456704119995986,0.12488804663297716,0.04032655126935211,0.3208073955422618
697,1456704120011252,0.12310317613870018,0.06161282811890234,0.33158603573535206
698,1456704120032244,0.1287966188521008,0.08545778864413081,0.3262209547092914
699,1456704120048002,0.14269466847422407,0.10837293259599681,0.3091602829767495
700,1456704120071249,0.1630221986328616,0.12715977276826876,0.2852023413033191
701,1456704120092316,0.1863204907915862,0.13958044527024688,0.25804593943649856
702,1456704120108166,0.20835860873081238,0.14467889076658141,0.2300083449822859
703,1456704120130938,0.22484857854413925,0.1427119680694864,0.20242577879706874
704,1456704120151981,0.2320614103555227,0.13478172532297247,0.17608318638214762
705,1456704120167940,0.22748583797459124,0.12234372434359664,0.1513484880625606
706,1456704120191380,0.21041366377219664,0.10677304740008786,0.12812423334503065
707,1456704120212400,0.18210813066878065,0.08910484445919496,0.10589117298901686
708,1456704120227399,0.1453054309616997,0.06997377045705286,0.08395845509646079
709,1456704120249243,0.10319933159272089,0.049705230524588154,0.061803618080679495
710,1456704120272355,0.05843934825916845,0.028481522204444592,0.039299934472109006
711,1456704120287392,0.012697284164157604,0.0065109372373052254,0.0166981681392465
