,timestamp,x,y,z
0,1456704106043305,0.0030221708393621365,0.011764745570407888,0.012805425789593887
1,1456704106066306,0.037666913592036236,0.031225410049935627,0.08715144944377036
2,1456704106082315,0.06859195120985094,0.050513122103573824,0.14276531687774177
3,1456704106103318,0.09275420997687757,0.07003104218229321,0.1679932221241614
4,1456704106127529,0.10848887433120542,0.09015175562936982,0.16201384711336797
5,1456704106142326,0.11543433458838209,0.11055061161968671,0.13418937126871033
6,1456704106163322,0.11415814893839603,0.12957934858018502,0.0995451295866145
7,1456704106187338,0.10588647195710854,0.14421382327290524,0.0726498746359572
8,1456704106218355,0.09251548176083267,0.15087904486509077,0.06254259857879105
9,1456704106219350,0.07670448284831133,0.1470178198156137,0.07049511153569199
10,1456704106240353,0.06168512527617178,0.13274553700967037,0.09096474230134925
11,1456704106269352,0.0506304969755601,0.11163631598186935,0.11483116798257635
12,1456704106279367,0.04578219719663374,0.08999948517252178,0.13338044997274956
13,1456704106309583,0.04771068845103748,0.07483028921479047,0.14155378754650305
14,1456704106336584,0.05502538283862216,0.07136332455211898,0.1394495966114056
15,1456704106360586,0.06470440536049048,0.08132146698514169,0.13168100495222643
16,1456704106361749,0.07306216820343028,0.1024909313483906,0.12492800678005138
17,1456704106380593,0.07716910525467285,0.12955268664539443,0.12480145806536205
18,1456704106405775,0.0762658585411259,0.15567088686887565,0.13347030048201544
19,1456704106420773,0.07250655101775169,0.17433526464241908,0.14900861017506972
20,1456704106439826,0.07045784000451179,0.181112920347537,0.16645068224129433
21,1456704106464769,0.07530518215605914,0.17502007556054908,0.17984990152121325
22,1456704106480644,0.09046017030596885,0.15916241730810138,0.1845362646807108
23,1456704106500856,0.11571207035286893,0.1402769008896455,0.17899539586827798
24,1456704106516857,0.14686557977018175,0.12703731125704018,0.16596460014673323
25,1456704106539859,0.17709408449039976,0.1274905981400532,0.1523214367474365
26,1456704106560859,0.19946196697643004,0.14648507064227043,0.14736780685256448
27,1456704106577386,0.20958035072010106,0.18404928698886053,0.1595876740203815
28,1456704106599894,0.20729032874448053,0.23528677542355841,0.19287793312198095
29,1456704106620117,0.19663202715426809,0.2917456547809735,0.2439858383596354
30,1456704106636894,0.18405711711251002,0.34376229827842764,0.3026513081647965
31,1456704106659896,0.17563527660439593,0.38308139279059017,0.3546235408804508
32,1456704106680626,0.17452738571499707,0.4049960768134266,0.38623629239193874
33,1456704106703263,0.17986871040791771,0.40923719021442756,0.38875303773622877
34,1456704106719975,0.18742017281545065,0.3990806722358682,0.3611908816809174
35,1456704106739977,0.19147724618274178,0.37898953177549255,0.3108457401416918
36,1456704106762979,0.18714061554124597,0.3522044274132528,0.25114174443475623
37,1456704106780501,0.1721470528491006,0.319818785250566,0.19732490610227763
38,1456704106800294,0.147747102909635,0.28161572344350017,0.16161954132015663
39,1456704106825008,0.1184602535254618,0.23768291462572727,0.1497417960417298
40,1456704106840009,0.09084850388869242,0.1897764218653678,0.15989696201960746
41,1456704106862011,0.07162200824348078,0.14199566195652857,0.18428801104046777
42,1456704106883839,0.06550753853221766,0.10057790217102489,0.21239689452303323
43,1456704106899831,0.07349034594367362,0.0726608090926108,0.23494423040400514
44,1456704106920793,0.09213798119196083,0.06418493992521183,0.24719816934926314
45,1456704106943829,0.11450346160035704,0.07758402823968252,0.2502578061426235
46,1456704106959754,0.13255249303850813,0.11016020558884174,0.2496309668991604
47,1456704106982158,0.1403037668444152,0.15395323983749903,0.2518277214938071
48,1456704107003827,0.136266103315616,0.19752948980559856,0.26073238689221456
49,1456704107019824,0.1238674218436843,0.22940481933689968,0.2753926178270765
50,1456704107041675,0.1096098923070447,0.24187619108182778,0.2900168634396823
51,1456704107064671,0.09998887882496728,0.23349371241842537,0.29621458316125304
52,1456704107080192,0.09879919372871807,0.2089830794140682,0.2868718502643625
53,1456704107102209,0.10603311163705985,0.17688120158328408,0.2601498155539081
54,1456704107123215,0.11860945491092557,0.1463065700968825,0.22138196696702095
55,1456704107140212,0.13223736078711207,0.12435767824568872,0.18132242807122562
56,1456704107162213,0.14326616195906597,0.11484325390391756,0.1513899426329757
57,1456704107183228,0.1496557066882722,0.11814777805644254,0.1385293314363273
58,1456704107200234,0.15095138607549327,0.13166788598496798,0.1423882558658631
59,1456704107222235,0.14772397119436373,0.15052446857746607,0.15597032942750566
60,1456704107243236,0.14100615749200088,0.16866679493105297,0.16922955572265536
61,1456704107260245,0.1320016670574806,0.18049656160778368,0.17396025880997593
62,1456704107282759,0.12204474528687376,0.18271002295135955,0.16775792246286744
63,1456704107303675,0.11262954554357016,0.17559340415772254,0.1550319257661208
64,1456704107320675,0.10537349520058593,0.16298774815885045,0.14446943411833751
65,1456704107342473,0.10190274056181556,0.15071559184939012,0.14439023616554159
66,1456704107363469,0.10366735370526814,0.1440745964675293,0.15860967984883653
67,1456704107380484,0.11163139469495918,0.14550587080797392,0.18491936691757788
68,1456704107402407,0.12582446249716434,0.15350272882510843,0.2166182551594562
69,1456704107423408,0.1449307873896028,0.16333293840102092,0.24580000659599752
70,1456704107440410,0.1662370991557746,0.16934077337378364,0.2663266084011424
71,1456704107462354,0.18617770100616246,0.1677390843300881,0.2750604298946849
72,1456704107483611,0.2014220479692183,0.15847788148895825,0.271475237935408
73,1456704107507194,0.21011301750483352,0.14538358587267897,0.25692421904655616
74,1456704107522195,0.2127199791462614,0.13485085557079537,0.23466231001756485
75,1456704107543496,0.21217600763799782,0.13398571118469718,0.2104992319573411
76,1456704107560197,0.21332491872893894,0.14883837399130437,0.19289050742693395
77,1456704107582467,0.22184212959417451,0.18278004409214968,0.19133346116196004
78,1456704107603169,0.2427541598890337,0.23499582407037997,0.21311752678356838
79,1456704107619941,0.27877115244391865,0.2995740668741799,0.2598464498468652
80,1456704107641941,0.3288164530572879,0.36604635994815576,0.32557495893821176
81,1456704107662943,0.38723045196455735,0.4219041595696478,0.39757744696908803
82,1456704107680449,0.4442247993463634,0.45672128932852496,0.4595136630980591
83,1456704107701965,0.48799632727976516,0.4664560880677976,0.49597412900704857
84,1456704107722972,0.5080324965738349,0.4557596969323518,0.49705398740818907
85,1456704107739967,0.4981860457290258,0.4364089799756847,0.46139470836336693
86,1456704107761970,0.45824317285238875,0.42183286559409094,0.3963915762932218
87,1456704107783671,0.3937583326051759,0.4203335176071395,0.3154368687129856
88,1456704107800396,0.3146319636090949,0.4309321257423931,0.23353948478194106
89,1456704107824187,0.23288308220876827,0.44428508768847363,0.16321950072019034
90,1456704107843487,0.15993148679954083,0.4477955145942221,0.1119923803417779
91,1456704107860190,0.10389095278632338,0.4316386124614646,0.08185108836484709
92,1456704107882507,0.06773095612194088,0.39262112650229014,0.070454740391002
93,1456704107903697,0.049184769963192945,0.3347187212999113,0.0732060554726592
94,1456704107934762,0.04259079859001262,0.2668920960214054,0.08516495065062137
95,1456704107942471,0.04179617212972561,0.19961384511349925,0.10204914169410914
96,1456704107965472,0.04270673925728545,0.14167831931548558,0.12027331445437063
97,1456704107986499,0.044446932776808466,0.098451705904859,0.13658549327474373
98,1456704108002691,0.0489277044492919,0.07185880318710773,0.14795983791965578
99,1456704108025691,0.059270283400689155,0.061558456413529805,0.15197614889127237
100,1456704108046511,0.07783159968557897,0.0663708994966452,0.1473811178305209
101,1456704108070511,0.10462612275636643,0.08511889058975422,0.13440543156600093
102,1456704108085763,0.13674686751615173,0.11642536145837713,0.11474711594077668
103,1456704108106841,0.16897169377897447,0.15755705061572897,0.09141709218602291
104,1456704108121842,0.1952763595469897,0.20307592683180947,0.06850204262220616
105,1456704108145844,0.21066994227844812,0.24455472953724833,0.0506184747923465
106,1456704108166105,0.21270792307135375,0.27232069298686246,0.04190326078489658
107,1456704108182563,0.2021870609772627,0.27888087902929604,0.044781824189187476
108,1456704108212069,0.18281643581857412,0.2622073831003049,0.059041834526732305
109,1456704108226103,0.16002272589100125,0.2268310996403713,0.08168241435304967
110,1456704108242069,0.13932948293609326,0.18206048446018863,0.1077054845969456
111,1456704108265071,0.12480329474426503,0.13837727122895585,0.13162864781739753
112,1456704108286082,0.11796252436818966,0.10386446052995597,0.14915478929800263
113,1456704108302120,0.11745148862161177,0.08223445008430094,0.1583244408732595
114,1456704108325119,0.11965514364761182,0.07307423641743156,0.15975040226955622
115,1456704108349120,0.12013642745807014,0.07372411264783711,0.156000151109504
116,1456704108362330,0.11536216317315771,0.08138185604178068,0.15045793618397177
117,1456704108385501,0.1039444568741857,0.09419089218996882,0.1460146206922238
118,1456704108406274,0.08687777400432388,0.11105489915329399,0.14397848147250822
119,1456704108421999,0.06686620912288183,0.1308036081243481,0.14366510002544047
120,1456704108447002,0.0472671998210958,0.1514902182118971,0.14289696251291015
121,1456704108466009,0.03113197841432417,0.1702675646973528,0.13916381389666446
122,1456704108489771,0.020540129796609217,0.1839273980113895,0.13088528921547488
123,1456704108505778,0.01624508174150644,0.18985628219110423,0.11825433755973318
124,1456704108526116,0.017627098875968257,0.18688322220055156,0.10334886159898138
125,1456704108542780,0.02296057507552982,0.17554576397992797,0.08944811327544089
126,1456704108564784,0.029960146931697653,0.1577231964697595,0.07977577568007432
127,1456704108586575,0.03648620636411744,0.13596691546152231,0.076162948462007
128,1456704108601870,0.04119399211288563,0.11288598663463828,0.07823209749923969
129,1456704108624871,0.04385703544547209,0.09073292750849858,0.08351586045204826
130,1456704108645874,0.04518966593640733,0.07115852070801497,0.08849383700005765
131,1456704108661874,0.04625833843674088,0.05510188736515695,0.09008086628960513
132,1456704108685724,0.04783286282684816,0.04286490756840275,0.08686457037344054
133,1456704108706179,0.050050780989428285,0.034401764409774556,0.07951431349628371
134,1456704108721912,0.05251439643719368,0.029698564277499947,0.07024772545082415
135,1456704108745914,0.05463255683353127,0.029010680750996852,0.06175780830162348
136,1456704108766915,0.05592954680248971,0.03281557250017702,0.05619214655468541
137,1456704108782654,0.05621649922194638,0.04151745089927237,0.05456339553390575
138,1456704108805381,0.055725121696156565,0.055027440765538796,0.05665785132206906
139,1456704108826371,0.05531053345777118,0.07235338460825898,0.061363729177312316
140,1456704108842154,0.056674838492902446,0.09137051717041128,0.06732719881713319
141,1456704108865160,0.0624226105892095,0.10898226177447674,0.07379827100262581
142,1456704108894547,0.0757286581252602,0.12181230757999857,0.08139374941589532
143,1456704108902243,0.09952163245110913,0.12735079329028406,0.09237031369100483
144,1456704108925245,0.13536957679472902,0.12518021458272732,0.1100589210734536
145,1456704108947247,0.182517010707644,0.11770988062075392,0.13751055375606314
146,1456704108962246,0.23750375976571744,0.10992012601881476,0.17595371633019027
147,1456704108985484,0.29447490357340567,0.10797252153561095,0.22382706590107018
148,1456704109007688,0.3459791732462348,0.11704034732090611,0.2766637150895297
149,1456704109022694,0.3840725836941581,0.13913621430949855,0.32750740664662914
150,1456704109046473,0.4017750419476024,0.1718659149710032,0.3676128268503729
151,1456704109067687,0.3948383648302322,0.2088363417733385,0.38780384086691
152,1456704109084199,0.3632505635201574,0.2418499142693232,0.3809681832382627
153,1456704109105492,0.31162672174928663,0.2640732044528546,0.34518874768896124
154,1456704109127493,0.2481516848257268,0.27255713811602117,0.2858774449547137
155,1456704109144494,0.18251850541842152,0.2686476589042969,0.2153144487171082
156,1456704109165496,0.12360986945001809,0.2561865373286444,0.1493133794008225
157,1456704109187680,0.07758580666844307,0.2389421337679827,0.1022938821681563
158,1456704109208732,0.0469336104352516,0.21904289572411959,0.08281864555097143
159,1456704109225734,0.03076348332053744,0.1970818825039563,0.09131452033288007
160,1456704109246737,0.026064810313934008,0.17320224428230147,0.1206295533621762
161,1456704109267744,0.029185916940569243,0.14808032242360017,0.1589596723078958
162,1456704109285263,0.03686706005324042,0.12328641125456469,0.19395650735025133
163,1456704109306755,0.046597777872496596,0.10114879617977601,0.21657250606212394
164,1456704109328754,0.0564811892291374,0.08440207696023608,0.22335512464821414
165,1456704109345600,0.06495845562806887,0.07570277787092243,0.2164547432445704
166,1456704109366602,0.07070534749424556,0.07695766178057696,0.20151216285607573
167,1456704109388424,0.07284183274046394,0.08853290958610281,0.18455991207729477
168,1456704109404958,0.07134622298783269,0.10865938212570724,0.1695381706787045
169,1456704109426939,0.06733656456312241,0.13345080024690173,0.15753751063494836
170,1456704109455941,0.06286676792157041,0.15774482352369068,0.14769980355592144
171,1456704109464976,0.060191571198065036,0.17654281930099067,0.13874537706943432
172,1456704109487451,0.06085964171905805,0.18645920220352435,0.13003159265731615
173,1456704109507961,0.06510560780891032,0.18654795922771758,0.12171908193530967
174,1456704109525204,0.07176680520273833,0.17817037378706127,0.11434405714942823
175,1456704109547174,0.07866975837744299,0.16405515006662352,0.10836857582006668
176,1456704109567965,0.08332888523626729,0.14710885994376752,0.10406501881142564
177,1456704109585666,0.08377503327016278,0.12956510853220002,0.1016651960986245
178,1456704109606973,0.07926121916596657,0.11272990873457582,0.10143749013787492
179,1456704109628975,0.07055173439157669,0.09723652998398605,0.1034642505325506
180,1456704109644976,0.059644828725279535,0.08355223898982256,0.10726211797460355
181,1456704109666976,0.04908344412005605,0.07237179718553188,0.11165708806862326
182,1456704109688278,0.0412062706512563,0.06453626320706682,0.11520941378659148
183,1456704109707287,0.03759905380123513,0.06045256050870389,0.11704733361721043
184,1456704109733555,0.0387895532435504,0.05949109158625696,0.11757233489392306
185,1456704109748295,0.04415876002215964,0.05996142810032876,0.1184722868785156
186,1456704109765291,0.05210777566429104,0.059810405310961066,0.12186582000586756
187,1456704109787661,0.06049749142646988,0.057584824348890264,0.12895616619620986
188,1456704109810234,0.06720360844880699,0.05301289361494225,0.13895471875217247
189,1456704109825235,0.0705343319941885,0.04690704311403823,0.14901210165964537
190,1456704109847237,0.06942738550143526,0.04061156155600088,0.1554203057108645
191,1456704109876534,0.06358984182851483,0.03546307767844527,0.15560478261504024
192,1456704109885035,0.053738448180153844,0.03257539619267354,0.1498419698841972
193,1456704109906551,0.04183190393443731,0.03293728955165872,0.14165380928602986
194,1456704109929552,0.030981899352201903,0.037608167914776856,0.13650462278408199
195,1456704109945554,0.024823527272022233,0.04777649702692564,0.13935395829188485
196,1456704109966553,0.026428773463173093,0.06450565585653764,0.15222755591080586
197,1456704109990061,0.03711915378919343,0.08808601748330157,0.1729270391687663
198,1456704110005576,0.05564597643246928,0.1171137237238661,0.1954387481257298
199,1456704110026577,0.07815270586678914,0.14775031559691396,0.21189082762349762
200,1456704110049578,0.09911677329404804,0.17387089677858378,0.21532059917783367
201,1456704110065580,0.11311279204373312,0.18859753723582864,0.2022579886224473
202,1456704110087640,0.11686420174804546,0.1869158809373278,0.1743219470377188
203,1456704110109794,0.11083363570542709,0.16818958882576138,0.13841718177037252
204,1456704110125796,0.09966578183331982,0.1371984511924492,0.1053540565351616
205,1456704110146799,0.091142001349409,0.10307168584395952,0.08694508037487779
206,1456704110169058,0.0938235308021531,0.07658334492084727,0.0921903728672022
207,1456704110191230,0.11405769531267815,0.06691803373246998,0.12380370129965178
208,1456704110206525,0.15330696357243312,0.0789596941410299,0.17649064993810404
209,1456704110228739,0.2067653585293433,0.11177251702680856,0.23790975324072786
210,1456704110251742,0.2639778736557817,0.15860384491771834,0.29230025462578446
211,1456704110266528,0.3116166898202266,0.20847777358762157,0.3256029605199249
212,1456704110289619,0.33765942730350423,0.24914756006067923,0.33006071138485804
213,1456704110311403,0.33535629499440067,0.27074018510331477,0.30643859007251734
214,1456704110326404,0.3052606648195305,0.2688856317590523,0.2631894848606277
215,1456704110349121,0.25449905652835736,0.2458900860634653,0.21321182507652534
216,1456704110371406,0.19385966103749816,0.20923211463054708,0.1694773267322838
217,1456704110386147,0.13425510538011298,0.1682229878534037,0.14089879912262035
218,1456704110409164,0.08405236282672852,0.13077381670369093,0.12979977309215962
219,1456704110433160,0.047905464690032706,0.10174603261134936,0.13203187672522199
220,1456704110447162,0.026870800840519887,0.0828955411946749,0.13980917932348946
221,1456704110469445,0.019245562155440824,0.07349746153463083,0.14599134954618903
222,1456704110491735,0.0216651405808619,0.07100791545699395,0.14764072661561642
223,1456704110506252,0.03019036036408559,0.07181834460232474,0.14692415128337002
224,1456704110529084,0.04121823466637539,0.07231014755292005,0.14892968088028344
225,1456704110550972,0.05208417486852014,0.06999194333500834,0.15783038003437785
226,1456704110565966,0.06127123045558279,0.06418047156995213,0.17373913154279608
227,1456704110589477,0.068237592843641,0.055880962318029505,0.19202370347474224
228,1456704110611495,0.0730045340241124,0.04700899362044776,0.2053463050833525
229,1456704110626495,0.07573745155247191,0.03943856047268961,0.20718515316570094
230,1456704110649497,0.0765078101505974,0.03435683002466555,0.1948589275626175
231,1456704110671637,0.07527181994940481,0.0321287676452568,0.1705319114318707
232,1456704110686446,0.07198251007729206,0.03254202112010423,0.140006151847635
233,1456704110710686,0.06673088132664456,0.03514368123024694,0.11029100253142785
234,1456704110731446,0.05984240300567845,0.03946214197318488,0.0872280386016708
235,1456704110746448,0.05189335762778724,0.04507275168097633,0.07399167955723969
236,1456704110769627,0.04364461364154601,0.05155452320376187,0.0706790892793729
237,1456704110791598,0.035910600639736875,0.05839809495969867,0.07481370108701207
238,1456704110806634,0.02939605223768093,0.06491554662396029,0.08242226244186603
239,1456704110828848,0.024551106330192755,0.070199545116504,0.0893068928402887
240,1456704110851667,0.021502219979447748,0.07320633900892573,0.09218904102481672
241,1456704110865639,0.020094876532848242,0.07303773579101214,0.08948797083384091
242,1456704110889699,0.02003442494802036,0.06937930713191795,0.08153182201736492
243,1456704110910747,0.021050810170048225,0.06288378768229705,0.07009402778332186
244,1456704110925748,0.022985989906785655,0.055246814984844635,0.05744147240457257
245,1456704110948742,0.025756194472208355,0.0488625434094795,0.04538868093011546
246,1456704110970956,0.029244430798220603,0.046162452221219466,0.03485136019849728
247,1456704110988523,0.03322760148616492,0.04888129124082612,0.02606364325163267
248,1456704111009214,0.03738244168498825,0.057491448506262366,0.019233605343629036
249,1456704111030987,0.04131048927539251,0.07096018033545982,0.01519378494359459
250,1456704111047987,0.04450036456388943,0.08689181040612153,0.015618921113998896
251,1456704111069297,0.046261576906698514,0.10202311278364942,0.022588150627749753
252,1456704111091583,0.04580348496164112,0.11295546928429379,0.03758944677015291
253,1456704111107602,0.04260165312439324,0.11699291503045949,0.06039426693227722
254,1456704111128887,0.036947915295198815,0.11297950261335324,0.0884127959582024
255,1456704111151689,0.03031270715588065,0.10195754005595783,0.11702986299931863
256,1456704111167663,0.02513449746998196,0.0873130263773716,0.14098808791999207
257,1456704111189896,0.023980828395742622,0.0740688315896111,0.1562715967379816
258,1456704111211491,0.02845554964635676,0.06729505496342636,0.16151058767730203
259,1456704111228191,0.03840642473384663,0.07011619636829361,0.15810253731242577
260,1456704111249193,0.05182644174791817,0.0822064335163408,0.14904835174200054
261,1456704111271406,0.06551793338076142,0.0996651359694347,0.13733204335540825
262,1456704111288587,0.07626362834654016,0.11660403782670388,0.12488377472646976
263,1456704111309344,0.08200324172484041,0.12785918874829236,0.11266761152991711
264,1456704111331415,0.08249616283314636,0.13150005070805146,0.10160731363413834
265,1456704111347134,0.07928311653336995,0.12977030928388336,0.09344383032847427
266,1456704111369136,0.07523663248898989,0.12791520639837614,0.09069040926139961
267,1456704111391375,0.07415656277253485,0.1316296328369853,0.09563118358003575
268,1456704111414368,0.08052152719745088,0.14472657301379643,0.10911257567704168
269,1456704111429368,0.0989792253223419,0.16830434708591546,0.12996020940696096
270,1456704111451369,0.1330443353927323,0.20133477489534887,0.15526514193605986
271,1456704111474608,0.18308857795674033,0.24140437635307713,0.18120373444955798
272,1456704111489339,0.2446606815220276,0.28450841314674985,0.2039220578778782
273,1456704111511551,0.3085293042319512,0.3242189478812392,0.22020468912689117
274,1456704111534594,0.3630318434660632,0.3518299426892779,0.22791463252492516
275,1456704111549364,0.39786550173177887,0.3588259587738916,0.2264132786924967
276,1456704111571355,0.40749997944326233,0.3410725766236144,0.2171285390301294
277,1456704111594546,0.39258651892121343,0.3020430235771965,0.2039479476918098
278,1456704111609618,0.3589052696998932,0.25242282455919635,0.19260214058426364
279,1456704111631514,0.31472322867064345,0.20597030703928793,0.1885528923926157
280,1456704111654329,0.26803355437044907,0.1741526390245733,0.19416871203905064
281,1456704111669294,0.22476730009401827,0.1624147191917297,0.20693370092304203
282,1456704111691799,0.18822679387883928,0.16929588733995965,0.2200275239736735
283,1456704111713605,0.15935550459229145,0.1879389822565551,0.2251928044655621
284,1456704111728892,0.13734097432596917,0.20886764375437353,0.21647775039961256
285,1456704111751644,0.1202980611750113,0.22295342370397278,0.19294405224545672
286,1456704111773615,0.10601155523518005,0.2237822524160579,0.15898173938922097
287,1456704111789133,0.09267830004286925,0.2089721384223892,0.12221549487535725
288,1456704111811642,0.07941679766405291,0.18029095887404614,0.09028290571555633
289,1456704111833930,0.06633577369001017,0.1426913091060096,0.06813782206386595
290,1456704111848645,0.05420980027236462,0.10266940358597386,0.056907830052963286
291,1456704111870653,0.044013317659315154,0.06651169875307295,0.05439396571866187
292,1456704111894734,0.03654441912978676,0.03889596000235004,0.056656500125909275
293,1456704111910735,0.03222310740828662,0.022104681819117854,0.05989336835360872
294,1456704111930738,0.031025965110783843,0.015912305747215673,0.06186976389227613
295,1456704111954738,0.03249714094037268,0.018030168020324592,0.06243413014078473
296,1456704111970739,0.0358349319819981,0.024897035548623134,0.06306290379048717
297,1456704111991262,0.0400866154874881,0.032624821730333924,0.06573711215818505
298,1456704112014779,0.04441056064038619,0.03794830511772866,0.07166355888436894
299,1456704112030779,0.048253119048394626,0.03900548655856044,0.08040682794172939
300,1456704112050788,0.05130222355107363,0.03575086572563569,0.0898646063724229
301,1456704112074782,0.053270713983697926,0.029865733929231274,0.09715865254734017
302,1456704112090094,0.053758834597937045,0.024168855212316178,0.10003821031165978
303,1456704112111627,0.05241849852929038,0.021668814518231636,0.09809269933022319
304,1456704112134660,0.049369058000924254,0.024497929199692264,0.09316327651223463
305,1456704112150587,0.04552629451667181,0.03304248564928228,0.08872492934001852
306,1456704112170593,0.04247769519550554,0.04560992015732495,0.08844120354334768
307,1456704112193918,0.04183219529304498,0.05887145107942622,0.09447537519614421
308,1456704112210925,0.04436724055588831,0.0690500294440934,0.10636202664900421
309,1456704112231949,0.049478044128932454,0.07345884889934164,0.12104702711723579
310,1456704112253969,0.05529743464517049,0.07172935992764519,0.13409301215348254
311,1456704112270962,0.05952654424901007,0.06612831004922747,0.14147301896449227
312,1456704112292438,0.060649403260903255,0.06079004741543147,0.14120848887209472
313,1456704112313953,0.05891971021793851,0.06021970292217637,0.13425044266308644
314,1456704112331125,0.056494526771582704,0.06769979810215872,0.12424927745151416
315,1456704112351147,0.05649537198791579,0.08415260720913169,0.1162244149935077
316,1456704112376227,0.061424780123733064,0.10776696854150992,0.1146040751376161
317,1456704112391164,0.07179412689157272,0.13445697880111326,0.12140982400891007
318,1456704112411619,0.08572870783147825,0.15895569886887737,0.13530601487399874
319,1456704112434650,0.09982021508423182,0.17612143631493046,0.1518835750442262
320,1456704112450647,0.1108658639350107,0.18208458746001158,0.16513344151335724
321,1456704112471546,0.11758950808777176,0.17516411385022557,0.169712617816959
322,1456704112494483,0.12129649327219733,0.15660329171791945,0.16324261952230734
323,1456704112510649,0.1249717046904389,0.13090560938482174,0.14760482949273754
324,1456704112531615,0.1313541671322609,0.1053109036607621,0.12844893316623157
325,1456704112554609,0.1412386151208271,0.08820310471290568,0.11304436955975472
326,1456704112569498,0.15310423408943108,0.08684551866514485,0.10756311245091159
327,1456704112591584,0.1642551790397326,0.1052710079261643,0.11513065296867205
328,1456704112613612,0.17256938920602438,0.14308070636503809,0.13537341918670384
329,1456704112629613,0.17751053445253803,0.19540521235216657,0.16520169129037138
330,1456704112651628,0.17977442325238313,0.2537469372630969,0.19992051444408127
331,1456704112673615,0.18024587686937155,0.30731177780685137,0.23395548632820892
332,1456704112690363,0.17946105311513913,0.3448597356402482,0.2613064474101325
333,1456704112711149,0.17793715004399877,0.35744801153957895,0.27641540294148426
334,1456704112734165,0.17660955777677878,0.3417979417066286,0.27578640805246035
335,1456704112749868,0.17655306368401527,0.302572218489409,0.2597733191870854
336,1456704112770867,0.1780994208953884,0.25140693283887616,0.2333616602290603
337,1456704112794594,0.1801943108331852,0.20241264527878594,0.20498847156954758
338,1456704112809600,0.18062358971946368,0.1665793405087847,0.18338928977606667
339,1456704112832600,0.1769932337347431,0.1483051831801004,0.17374981148912363
340,1456704112854601,0.16783871286334243,0.14544520879451792,0.17526465198248553
341,1456704112869603,0.1532618456463187,0.15186150430285206,0.18170699054653502
342,1456704112893560,0.13486307691791202,0.16052981040525782,0.18486389267609263
343,1456704112913953,0.11512921916149293,0.16589809516810503,0.17888798832902292
344,1456704112937097,0.09662982827781623,0.1651177977128053,0.16308166801648144
345,1456704112952837,0.08135231081734581,0.15815776058498843,0.14170850397296764
346,1456704112974141,0.07035051201981156,0.14692478558791688,0.12125565135369877
347,1456704112995883,0.0636943437872227,0.13382227223887222,0.10691336386827073
348,1456704113012884,0.06061809371049672,0.12052840050073152,0.10022352505902335
349,1456704113034221,0.05979877557074094,0.10766275933775134,0.09895581721879476
350,1456704113057222,0.05971964130319714,0.09536829576251511,0.09889772338205081
351,1456704113072887,0.059031938315624526,0.08417757284170706,0.09625488534556131
352,1456704113094388,0.056819220509074606,0.07537647993402788,0.08933642829264558
353,1456704113116596,0.05272146259765601,0.07050340938014872,0.07895106652834856
354,1456704113132596,0.046918053660585664,0.0702939368198333,0.06773755561173385
355,1456704113153603,0.03999996503563863,0.0738286646362271,0.058996469882538184
356,1456704113177668,0.032811592301407864,0.078571553480078,0.05552617775583031
357,1456704113193109,0.02634082357940542,0.0814460324685123,0.058766662052090794
358,1456704113214118,0.021638052339763996,0.08040860386130746,0.06838356703681292
359,1456704113237422,0.019671683484983084,0.07558149810492522,0.08232735079562621
360,1456704113253120,0.021093289311393548,0.06923083974970022,0.09737201064402386
361,1456704113274128,0.02600961570122814,0.0646219131147271,0.11007951838300996
362,1456704113296361,0.033888313553821894,0.0644543057036291,0.1179326779830003
363,1456704113313363,0.04363470898980066,0.06966638863679527,0.12013036628928418
364,1456704113336545,0.053762338111354877,0.0790143518208858,0.11756661871003718
365,1456704113357364,0.0625491130350108,0.08944748763837455,0.11195995757910038
366,1456704113373365,0.06816666191528845,0.0971245552599783,0.1046739020250498
367,1456704113394373,0.06889796052446673,0.09879613370558955,0.09601941153207258
368,1456704113416379,0.06356071340153692,0.09311379691549415,0.08553043293284354
369,1456704113432380,0.05211432406902589,0.08135225583078703,0.07304031906570545
370,1456704113453386,0.03627324314306356,0.06719148445185674,0.05984422154204394
371,1456704113477525,0.019858882226371704,0.055569530530948374,0.049191843293407096
372,1456704113493492,0.008593083231480511,0.051009018671683864,0.045752343150867764
373,1456704113514589,0.009097636812973563,0.05604413281646783,0.0541630869182953
374,1456704113537616,0.027077847743751965,0.07032409917874283,0.07708412671945791
375,1456704113552590,0.06502547956339798,0.0906864115975183,0.11338735160511049
376,1456704113573879,0.12018703321689225,0.1121350048797182,0.1572711465272723
377,1456704113597411,0.18383970587850168,0.12940286240270607,0.1990141876809429
378,1456704113612412,0.24277857220988963,0.13868402158860438,0.22754017059651313
379,1456704113634577,0.28304967065802167,0.13907267263074966,0.23407570839587713
380,1456704113657613,0.29465122353796214,0.1331807412139484,0.2154227846376624
381,1456704113673535,0.27513107621936883,0.12651941588706736,0.17531588535210474
382,1456704113694212,0.2305018699565785,0.12571340130265088,0.12326133312223103
383,1456704113717609,0.1733946859088727,0.1362268503000318,0.07162617460412715
384,1456704113731493,0.1196950337129781,0.16055105087221216,0.032451389303216005
385,1456704113753500,0.08501931443355903,0.1975668459049774,0.015004317158539058
386,1456704113777608,0.08149800973908346,0.24321978711372122,0.02414225499112381
387,1456704113793663,0.1147126236353017,0.292007887945948,0.05915625347024719
388,1456704113815793,0.18110573520589013,0.33839716245080775,0.11317881531614687
389,1456704113836801,0.2671493725684944,0.3774416651533609,0.17387388457176559
390,1456704113852795,0.3517833351139979,0.4045887958193643,0.22615345159261518
391,1456704113875796,0.4124502663682336,0.4153925124712393,0.2567224946758023
392,1456704113897040,0.4328621508247117,0.4059925273256466,0.2588245981669645
393,1456704113912810,0.40892385066090253,0.3746265079145575,0.23482096406378827
394,1456704113935811,0.3496803429587191,0.3235473878787005,0.1950952172440022
395,1456704113956855,0.27284255060662216,0.26004714923372374,0.15375709454633335
396,1456704113972813,0.1974613116722129,0.19537906833051186,0.1232234129256004
397,1456704113995822,0.13749533072704007,0.14148678387641225,0.1100451523439618
398,1456704114017124,0.09882323641059684,0.10694453089644049,0.11349918482130658
399,1456704114040829,0.07993128624438431,0.09415125160265495,0.1270921608104519
400,1456704114055867,0.07480363823294822,0.09906609081598482,0.14188961273315756
401,1456704114076868,0.07621970353445301,0.11331936112619705,0.1500414187065235
402,1456704114093346,0.0782461790288257,0.12747653861362182,0.14715678069997082
403,1456704114116515,0.07743630452501248,0.13406727705675192,0.13297055623473789
404,1456704114137509,0.07281577437322487,0.1294588636976863,0.11057332504620626
405,1456704114159504,0.06511903929777459,0.11424669434811872,0.08493999273174126
406,1456704114176507,0.05586334085012163,0.09229885380233249,0.06144064710053732
407,1456704114197573,0.046676425129886706,0.06897895531071678,0.04468415357623309
408,1456704114219574,0.03898065690800944,0.049334279762927875,0.03774082500638234
409,1456704114235575,0.03390117978815484,0.03690315762399386,0.04163804099765871
410,1456704114256825,0.03221074922284324,0.03328603796519722,0.05505226351744976
411,1456704114278583,0.034210401494029194,0.03821832629593721,0.07431200701301222
412,1456704114296084,0.03957749855920254,0.049874230462658146,0.09400157954818693
413,1456704114316841,0.047297598643408205,0.0653011604656119,0.10835815884992121
414,1456704114338793,0.055784516521223015,0.08097074905466438,0.11319386147384257
415,1456704114355593,0.06320823440551773,0.0934451834668414,0.10751606307436756
416,1456704114376846,0.06795540118840418,0.10014625846378075,0.0939015699266513
417,1456704114398636,0.06907870139862025,0.10010549478715933,0.07730812232459931
418,1456704114415605,0.06655965768080122,0.09437775668364001,0.06297794650542829
419,1456704114435809,0.061243753474472085,0.0857564905930365,0.05459047596482394
420,1456704114459609,0.05445285594856222,0.07772958645297962,0.0534782783023379
421,1456704114475609,0.047490171998068355,0.07309960644635809,0.058924874085356724
422,1456704114496621,0.041326985268636755,0.07296702827356327,0.06898070905944056
423,1456704114519628,0.036574280237248416,0.07658434953408406,0.08119094899435773
424,1456704114536629,0.03358962228588812,0.08204585042516702,0.09298210781788206
425,1456704114557631,0.03253173179562057,0.08729972409542441,0.10185160258237463
426,1456704114578918,0.033329417601697664,0.09091520274607316,0.10566059662449981
427,1456704114595143,0.03563877218941499,0.09236792400871861,0.10315617488715356
428,1456704114617652,0.038847214871720694,0.09195670492382296,0.09452179256002666
429,1456704114640653,0.042163030145346114,0.09054573983926961,0.08161040476004129
430,1456704114654654,0.0448304928507194,0.08920835321968364,0.0676720353533894
431,1456704114677655,0.046434648215943855,0.08880498399690173,0.05662501706060614
432,1456704114698953,0.04712850508921506,0.08963505777901414,0.05203466972320498
433,1456704114714676,0.04759092071949563,0.09134591823136046,0.05600596212153919
434,1456704114737676,0.04866734058727672,0.09312000421669273,0.06828376389977817
435,1456704114759678,0.05084962333315432,0.09397298276978591,0.08595958436724162
436,1456704114774679,0.053886069276212645,0.09300890957625933,0.10413054410203315
437,1456704114797702,0.05679992176503828,0.08961909248482944,0.11748018131620216
438,1456704114818989,0.05839191486851326,0.08364100018722105,0.12219608270632559
439,1456704114834702,0.05797907686484382,0.07541073971787318,0.11737531420463002
440,1456704114857703,0.05590882576878744,0.06567066553904236,0.10536678680635822
441,1456704114878711,0.05349555573301487,0.055464183530612554,0.09106188215055304
442,1456704114895215,0.05240778396932049,0.046200046328525715,0.08048814337757872
443,1456704114917723,0.053897491034193785,0.03984943743788404,0.0790859209243162
444,1456704114938726,0.05832535895552274,0.03897428560775757,0.09001086953312637
445,1456704114954726,0.06515895969423209,0.04628783032505696,0.1128869308168773
446,1456704114978727,0.07326827079484761,0.06373220699413258,0.14351838497660785
447,1456704114998958,0.08122920524388606,0.09136514148086067,0.17488575363397013
448,1456704115014751,0.08750967730969766,0.1264991934487605,0.19920082501007713
449,1456704115037752,0.09063200352973964,0.16356336775906635,0.21020472346962024
450,1456704115058861,0.08947854620650042,0.19506111561538367,0.2047980170929969
451,1456704115075014,0.0837938278829076,0.21366247002604266,0.18361874668179543
452,1456704115097776,0.07472819664177681,0.21490486733893485,0.1508196186770141
453,1456704115119063,0.06512411247704965,0.19944602383502175,0.11346624053747426
454,1456704115134781,0.05928088735413735,0.17369188806003522,0.08067155150303366
455,1456704115157781,0.06213259037117333,0.14820503172984045,0.062262986730707494
456,1456704115179081,0.0780054044447146,0.1343673396396029,0.06680556820691534
457,1456704115195793,0.10924803802687512,0.14056949922697817,0.09911815309491884
458,1456704115217801,0.15505338782883102,0.16928576964151687,0.15786287698235185
459,1456704115239097,0.21081910882013333,0.21604415757095427,0.2342798235099768
460,1456704115254803,0.2684586186267071,0.270785852543857,0.3132920773644432
461,1456704115277804,0.3180303473004322,0.3213244973199047,0.3773918695475598
462,1456704115299109,0.3505935171644527,0.3576590826303717,0.4120585646008583
463,1456704115314823,0.3612297487682495,0.3752935126428137,0.41028139187073537
464,1456704115337827,0.35050371573381806,0.37603335482153394,0.37427199778033954
465,1456704115358827,0.32340471483443856,0.3660267198097514,0.3141116031874135
466,1456704115374845,0.2866123983545821,0.3523335447351429,0.24429416519801236
467,1456704115397840,0.24593922536874194,0.33995803549978665,0.17940771791293794
468,1456704115419109,0.20519994703959324,0.33068059688342505,0.13022810268076002
469,1456704115441849,0.16649965975714864,0.3237227254400671,0.1014748683336738
470,1456704115457844,0.13112214923474608,0.3171808554297321,0.09190179193120629
471,1456704115479012,0.10016202478002091,0.3090451761338199,0.09627386880951103
472,1456704115502156,0.07458691466726826,0.29745654637863217,0.10790969915077321
473,1456704115518140,0.05501122748528026,0.28069004838833705,0.12056203704706907
474,1456704115539442,0.04159734842201818,0.2574439928413997,0.12932315996309132
475,1456704115563142,0.03419937186098757,0.2275420766530303,0.1310457120549743
476,1456704115578143,0.03255387420474852,0.19260025364921807,0.12474127026304795
477,1456704115599161,0.03629648703343819,0.1559725839431333,0.11182870745689968
478,1456704115622162,0.044788596997021125,0.12169695854524593,0.09577708043049352
479,1456704115638164,0.05691556528644083,0.09297103701248245,0.08098380227068813
480,1456704115662163,0.07100405190390124,0.07111901570194505,0.07126995615547002
481,1456704115682184,0.08489539161936784,0.05564028828444638,0.06864129315070996
482,1456704115706196,0.0961728240653521,0.045132682600742956,0.07281169091047973
483,1456704115721191,0.10257100697449928,0.038345334918751195,0.08158470801463036
484,1456704115742238,0.10255653106374059,0.034707753972628104,0.09178577898894216
485,1456704115758199,0.09590532764673938,0.034194648380868845,0.10025869999836697
486,1456704115781230,0.08396289921520736,0.03682846140556985,0.10457284221435191
487,1456704115802413,0.06934962187838077,0.042219506176455555,0.10337945379199702
488,1456704115818251,0.055165140440922585,0.04938729854103346,0.09654302186880247
489,1456704115841256,0.044036733727663334,0.05690417916634967,0.08513221808642206
490,1456704115862256,0.03743077248937117,0.06325686416021727,0.07121297678009661
491,1456704115878465,0.03546626993749898,0.0672453612566818,0.05738378571229948
492,1456704115900462,0.037183278919879964,0.06824918554891303,0.046164888748174156
493,1456704115922445,0.04104264836460914,0.06629531335700115,0.03946456552586664
494,1456704115938347,0.0454516619114815,0.061985311227045585,0.03825422920806725
495,1456704115961444,0.04919216896622962,0.05636436447535921,0.04243947155696106
496,1456704115982397,0.05164317662231304,0.05072982090754072,0.05088823798648422
497,1456704115997456,0.05271590548510037,0.046315337531041695,0.06163417578495426
498,1456704116021462,0.05257299496847644,0.04386972630793282,0.07229144155995891
499,1456704116041482,0.051374790460248156,0.0433152844560245,0.08064934424651672
500,1456704116057464,0.0492621768001607,0.04373127764591095,0.08528674495618337
501,1456704116080466,0.04654686453905279,0.043759361944761946,0.0859484163613657
502,1456704116101518,0.04388757714438596,0.0422576645247724,0.08348664925121245
503,1456704116117478,0.04226513522422238,0.038854935301485954,0.07939976166237421
504,1456704116140479,0.04274194980465616,0.034134622402141386,0.07522723750521293
505,1456704116161516,0.046115339181068686,0.029437619322821226,0.07211916182889787
506,1456704116177481,0.05259241428757022,0.026466714674633227,0.07075775833615053
507,1456704116200501,0.06158361376684835,0.02686875287566902,0.07157600122886666
508,1456704116221507,0.07168325793047925,0.03184776712484606,0.07504557902161922
509,1456704116237503,0.08088050788723339,0.041778159666719994,0.08178396313339226
510,1456704116260504,0.08699238383728067,0.055837806797311894,0.09234714121493783
511,1456704116282060,0.08822497549832779,0.07184549176872644,0.10677215615868198
512,1456704116297561,0.08370854973882684,0.08658432013432661,0.12413030610639539
513,1456704116320567,0.07389377057673722,0.09674549283718226,0.1424415867717512
514,1456704116341831,0.060821315216077164,0.10028821981486111,0.15919640722897846
515,1456704116357569,0.04831829601493278,0.09770233052196818,0.1724222259081255
516,1456704116381570,0.041987717466933944,0.09256862822904409,0.18183383688856944
517,1456704116402519,0.04860113124443469,0.09100978906566634,0.18937978789638657
518,1456704116418298,0.07454399306324636,0.10003574062630159,0.19870823585741693
519,1456704116440565,0.12340206429012036,0.12521769023436063,0.21364633606504266
520,1456704116464299,0.19336336404709598,0.16839034391298646,0.23629180929851895
521,1456704116478444,0.2755992744169214,0.2261346248114703,0.2654784022351862
522,1456704116499734,0.3549700986904201,0.28971200904664507,0.29628924526431166
523,1456704116521776,0.41382409468031967,0.34689834982733436,0.3210292728310985
524,1456704116537959,0.43806427964790595,0.38557728058920576,0.33152248053948163
525,1456704116559738,0.42285064195580435,0.3979550278746698,0.3219171930401933
526,1456704116581776,0.37484562462714327,0.38347155243022996,0.2909044418269127
527,1456704116598272,0.3095427663540261,0.3488038545396192,0.24259393544828928
528,1456704116619780,0.24497910690421026,0.3048925543080551,0.1858129103634488
529,1456704116642781,0.19510046861552408,0.26263711450831323,0.13200174537085738
530,1456704116663782,0.16591266310814612,0.22951415931869465,0.09227814841960832
531,1456704116679783,0.15560408476483012,0.2084904579640081,0.0745021551761245
532,1456704116702814,0.15754944177421235,0.19897622133244847,0.08109702807876656
533,1456704116724005,0.1639555199422114,0.1984129165539346,0.10818541655387728
534,1456704116740045,0.1683910212621845,0.203213161007209,0.14646347868251366
535,1456704116762814,0.16682838816507914,0.20890386171855246,0.18389195089399044
536,1456704116784238,0.15779086309434007,0.21032593536493205,0.20954414298833854
537,1456704116799569,0.14212745817469824,0.2026963232343855,0.21716954057662183
538,1456704116822572,0.12243835541531692,0.18336644241038091,0.20686275963031317
539,1456704116843580,0.10207385213933917,0.15318233711551954,0.18405558353267348
540,1456704116859576,0.08395582562780322,0.11640443392532697,0.15650819723416867
541,1456704116883367,0.06969907953776303,0.07915509815943306,0.13103918094586847
542,1456704116904013,0.05937548723569848,0.04732547160901247,0.1116035674656319
543,1456704116919801,0.05193248870276301,0.024972771052657224,0.09922154716532366
544,1456704116950803,0.04599197090349728,0.013666398471196382,0.0931065151310457
545,1456704116964050,0.04062525271323222,0.012665205969101721,0.09188806846633747
546,1456704116979806,0.035752435106251784,0.019572236261872735,0.09419133202427943
547,1456704117004609,0.03203007438987906,0.031148263710903675,0.09857703232623256
548,1456704117023616,0.030369264466925543,0.04408274766584587,0.10333370830279204
549,1456704117039611,0.03140949717319291,0.05560055518310917,0.10655191920759141
550,1456704117062613,0.03523721610281202,0.06382765923028678,0.1065336941156579
551,1456704117084193,0.04140456135350687,0.06791195818108686,0.10229494797770604
552,1456704117099927,0.04908045214223771,0.06798450639958607,0.09387859411537489
553,1456704117122928,0.05715297759211434,0.06504788631533845,0.08234459108266971
554,1456704117144213,0.0642662250474123,0.060768760687987325,0.06950277690217697
555,1456704117159932,0.0689254201709914,0.057082758565101366,0.057568454283218
556,1456704117182931,0.06981170390421891,0.055619757433130614,0.048845408184186846
557,1456704117203454,0.06629182812038172,0.05713059063483376,0.04536023128860639
558,1456704117227449,0.05887297251513944,0.06116407452544898,0.048350283271446505
559,1456704117242450,0.04924801281045549,0.06616872350298458,0.05773143512725084
560,1456704117263452,0.03976680175342073,0.07004226970156005,0.07187285612011854
561,1456704117280455,0.03254144943474084,0.07097363117634338,0.0879141433698757
562,1456704117303403,0.02864375678169898,0.06826758967448865,0.10254439248935639
563,1456704117324404,0.027800243631862304,0.06280182644884717,0.1129075738586434
564,1456704117340381,0.028712998795576608,0.05689565801227525,0.11729356412223803
565,1456704117370416,0.02983017335873186,0.053600346499599896,0.11548235451423024
566,1456704117384366,0.030193025915874465,0.05561866729613418,0.10880946629971926
567,1456704117399455,0.029942787858068528,0.06418785996423007,0.09999985037935048
568,1456704117422489,0.030207501548636773,0.07833945929985602,0.09263873691437204
569,1456704117443471,0.03239770371256559,0.09490763668380202,0.09013140987037577
570,1456704117459466,0.03728608428159409,0.10940539111694851,0.09432234744948156
571,1456704117483466,0.04440278070542902,0.11752400656331188,0.10437890889880017
572,1456704117507692,0.05210688263080648,0.11672296105290722,0.11670783180347119
573,1456704117519694,0.0582869052845423,0.10725683595109595,0.1263265522013349
574,1456704117542694,0.061271885311816064,0.09212252489599533,0.1293173014986802
575,1456704117563696,0.06045898237627365,0.07588503376769526,0.12515774355611498
576,1456704117579698,0.05641388307637962,0.06294144733646966,0.11746828162203253
577,1456704117602328,0.05053903815245776,0.056064638188190394,0.1124284620660084
578,1456704117625329,0.04456239256720024,0.055835736063841936,0.11548704930348627
579,1456704117647330,0.04005289618418767,0.061070586990688396,0.12813203697576117
580,1456704117662368,0.038091220232589276,0.06992277972691462,0.14661160885707036
581,1456704117686316,0.03920400366222561,0.08113010430315884,0.16350391490038968
582,1456704117700317,0.04362850240096132,0.09483612964614815,0.17148377077009094
583,1456704117722561,0.05182540872157956,0.11260573357297322,0.1673755342441271
584,1456704117745563,0.06494980878353468,0.1366516167364949,0.1543469360437038
585,1456704117759563,0.08488320099266078,0.1686505012535045,0.14103370798291184
586,1456704117782565,0.11353855633678177,0.2086210232673279,0.13787422799007595
587,1456704117805952,0.15144993610979857,0.2542208280090803,0.1521993872328892
588,1456704117819953,0.19607695423863003,0.3006859328382038,0.18429174177142682
589,1456704117842956,0.24073899637985854,0.3415547222030644,0.22647936930288604
590,1456704117865956,0.27536379977868486,0.3702174079475454,0.2660902862627874
591,1456704117879957,0.28966267784285776,0.3820235764669048,0.2910349356584437
592,1456704117903075,0.27774088548186476,0.376111680812361,0.29516844156716304
593,1456704117926076,0.2416683892402558,0.3557835392128507,0.28072523857518356
594,1456704117947078,0.19174371430755408,0.3268678932854655,0.2568809000469589
595,1456704117963079,0.1430700057022952,0.2949361338256649,0.23542758929384244
596,1456704117986103,0.11003864777098032,0.26317603875899287,0.22555924999839647
597,1456704118007393,0.10112327111985694,0.2322405992466367,0.2298736358463907
598,1456704118023399,0.11599548717759797,0.2018778038170531,0.24326487736264932
599,1456704118046339,0.14593716083063216,0.17287703345950123,0.2553994291545933
600,1456704118066348,0.17731323174336547,0.14782431357772385,0.2558622062604593
601,1456704118083394,0.19676790908612607,0.13021411666442656,0.239423789288336
602,1456704118106327,0.19611058179925517,0.1226066555878684,0.20851441429896045
603,1456704118127395,0.1749422026944185,0.12498087151886261,0.1715945757741223
604,1456704118143102,0.14007626336704604,0.1342000518034977,0.13864873488954566
605,1456704118166103,0.10228840384740544,0.1448877460399152,0.11658343594928076
606,1456704118187357,0.07203626519485293,0.1513096783949495,0.1069253975592011
607,1456704118202506,0.055925696243189264,0.14935794623330412,0.10648418946139421
608,1456704118225507,0.05500918882260306,0.13770258854669729,0.10991240066830711
609,1456704118246509,0.06514255164324019,0.11772004239432661,0.11242279404104183
610,1456704118262509,0.07903454196853137,0.0926015642189523,0.11145425062792619
611,1456704118286304,0.08923515169201514,0.06643610962605616,0.1070796138164815
612,1456704118306967,0.09099265890739776,0.04375409809558574,0.10154246170837104
613,1456704118322739,0.08387613776196085,0.029395548985654652,0.09828720902629459
614,1456704118344740,0.07156225544463138,0.028202492909150986,0.1006709960868697
615,1456704118367048,0.06001762347596198,0.04414242356337465,0.1106379947903343
616,1456704118382742,0.05493911087306951,0.07886360772331849,0.12785275332263896
617,1456704118411883,0.05946326629211659,0.13009758802321403,0.14968703699012814
618,1456704118426877,0.07294204458152977,0.19065365702960224,0.17196832817228833
619,1456704118442877,0.09118082786376032,0.24892440661320442,0.1900037841230983
620,1456704118464879,0.10801536227954285,0.2915237414852271,0.19950311752286345
621,1456704118486885,0.11760423810632605,0.3076026130697884,0.19740783175935805
622,1456704118502891,0.11656437832232024,0.29302581126934113,0.18270361892961157
623,1456704118524892,0.10517914254626119,0.2522157232138958,0.15693930143019666
624,1456704118547894,0.08727163143776345,0.196680965687314,0.12398685491120706
625,1456704118562894,0.06882599412330524,0.14107165461868768,0.08898843853457472
626,1456704118586091,0.05591254247559335,0.09863133701143262,0.05702895290294638
627,1456704118608079,0.05273116168314859,0.07775886452572359,0.032157176489786395
628,1456704118623067,0.06048842423548629,0.08056023888739329,0.016959550482332768
629,1456704118645095,0.0774307039705935,0.10336600156570876,0.012517052222293719
630,1456704118667874,0.09989146903454962,0.13859353844449632,0.018519847719206475
631,1456704118682875,0.12383920944389173,0.1771763015175333,0.03342314972697076
632,1456704118704669,0.1462119027187097,0.2109344542508888,0.054655648943651394
633,1456704118727671,0.16545475059846984,0.23441715151601167,0.07901513658197486
634,1456704118742672,0.18120737060432304,0.24574242764162452,0.10339833915416481
635,1456704118764674,0.19365030924053628,0.24609760427661595,0.12578206997768607
636,1456704118787962,0.2030994234501552,0.23820627161930832,0.14601512734986982
637,1456704118803445,0.20999036743157012,0.22480478600795248,0.16583114529008802
638,1456704118824277,0.21492572943681398,0.20809017124425086,0.18776495796630996
639,1456704118847278,0.21843601807529875,0.19013922191976268,0.2132561768189275
640,1456704118862442,0.22050043377914041,0.1734630703804158,0.24086311736436683
641,1456704118892290,0.22027105722141144,0.16090262442507017,0.26577739436929204
642,1456704118907797,0.21646605988706888,0.15473503742051212,0.2813074922366755
643,1456704118922798,0.2084330138074002,0.15551579498256718,0.28174789144026574
644,1456704118944800,0.19721526621986749,0.16145920428347138,0.2649799750336972
645,1456704118968801,0.18569102799831858,0.16896065071399613,0.23334072207033701
646,1456704118982800,0.17738673206245006,0.1742189183454158,0.19264323492340263
647,1456704119004866,0.17457075758049018,0.17511367787210366,0.15035351577780198
648,1456704119033837,0.17688631955874884,0.17213167743378105,0.11383730333845311
649,1456704119049034,0.18147694547617302,0.16764522596793055,0.08886561574969407
650,1456704119065076,0.18449756671402617,0.1639374279422659,0.07829775914755317
651,1456704119088286,0.18296374382143069,0.1612555800549498,0.08118049525129911
652,1456704119109552,0.17581006139715571,0.15724895887057413,0.09277911225524885
653,1456704119124552,0.1637898245187898,0.1483450690894264,0.10590206101940665
654,1456704119148555,0.14874748541135624,0.13242350945198017,0.11337770771462254
655,1456704119170554,0.13305018944380345,0.11127578535169291,0.11092007966487083
656,1456704119184554,0.11946124341884974,0.09128330185225021,0.09919834292787444
657,1456704119208256,0.1111056251934254,0.0815735631090437,0.08405887179195715
658,1456704119228990,0.11102347079286663,0.09026408908837653,0.07457778485504345
659,1456704119245251,0.12117721600712472,0.12055447670086888,0.07953992752822826
660,1456704119269261,0.14133797874586249,0.1686990464629363,0.10361757226702537
661,1456704119289212,0.1686261572294916,0.22509007404014708,0.14480203055203933
662,1456704119304223,0.19831390787928713,0.2781060884873943,0.19441343793217036
663,1456704119328334,0.22575628457664443,0.31872262457561806,0.24010653125521944
664,1456704119349227,0.24837562471535102,0.3432412473619959,0.27084131669087047
665,1456704119365228,0.26626719685941785,0.3527445571419114,0.28151705990168957
666,1456704119388171,0.2808283543250417,0.3503718358256791,0.27485231887365535
667,1456704119408883,0.29244536505914714,0.33900509699286213,0.2595176156750879
668,1456704119424668,0.29933131964257426,0.3209686147779101,0.24563652829897195
669,1456704119447670,0.298843706316096,0.299066874565001,0.24006281396022722
670,1456704119468677,0.2902840538083001,0.2772156011686228,0.243611975885262
671,1456704119484672,0.27643006471949993,0.2598783120796864,0.2512173622727393
672,1456704119507407,0.2619732291601789,0.25099145944965545,0.25466985797678393
673,1456704119530409,0.2499975803515555,0.2533004200888483,0.24665132333521977
674,1456704119544410,0.239597797721263,0.26803915421196495,0.22430441953775387
675,1456704119567410,0.22676020947692507,0.29419819412247455,0.19072278203113288
676,1456704119591342,0.20789590715168982,0.3273292559282946,0.15367262195002915
677,1456704119605075,0.18345373716667407,0.35914503671275094,0.12227503030309012
678,1456704119628079,0.1591409347625423,0.3793463460860027,0.10336984379047262
679,1456704119650862,0.1439134165897838,0.37955524167692206,0.09920900493203859
680,1456704119664862,0.1457949488570251,0.3572429480154184,0.10724471744391571
681,1456704119688153,0.16772459972565396,0.3170506382928912,0.12174113068277762
682,1456704119711163,0.20552671029278977,0.2685730593722792,0.13626618171842753
683,1456704119726164,0.24890024664224192,0.22208157291715414,0.146021230955531
684,1456704119748166,0.2848412371183548,0.1847236939877801,0.14925573429332364
685,1456704119771167,0.30201893834056753,0.15890887816794738,0.1474102055926805
686,1456704119792251,0.2945316396078194,0.14301851227958853,0.1441100658435364
687,1456704119807753,0.26380974450752154,0.1334514719149262,0.1436421423195925
688,1456704119830755,0.2180058702755113,0.12670718343102555,0.1496815321276751
689,1456704119844756,0.16907555188733128,0.12060963600250255,0.16454538163857543
690,1456704119868756,0.12865541959488475,0.11451747259161661,0.1886214094867787
691,1456704119890762,0.10427578319731463,0.10889593466495048,0.21964705540906057
692,1456704119904775,0.09726072844910524,0.10467742044781433,0.2522398010216927
693,1456704119927776,0.10303553762460255,0.10264116648963226,0.278589845521522
694,1456704119950777,0.11359393720451616,0.10293427816116998,0.29073707038446867
695,1456704119971779,0.12090856628881805,0.1048818996539548,0.283678042697157
696,1456704119995986,0.1197311847645013,0.10719954165578884,0.257747681574579
697,1456704120011252,0.10879608716356198,0.10852730320106983,0.21898747568458973
698,1456704120032244,0.09041139080805903,0.10802303255939356,0.17729225605774207
699,1456704120048002,0.06906792898507652,0.10574066126426251,0.14321685088555297
700,1456704120071249,0.04978303123634984,0.10259713250044585,0.12481956396146769
701,1456704120092316,0.03668641027657252,0.09983799862767496,0.1257007480160147
702,1456704120108166,0.03211326279093078,0.09817854592879482,0.14467324231752593
703,1456704120130938,0.03627005790718199,0.09714424273447311,0.1766962946792781
704,1456704120151981,0.0473896364377047,0.09515125078386391,0.21426797962744168
705,1456704120167940,0.06221382900850619,0.09038361554256208,0.2486122372561916
706,1456704120191380,0.07664783505824858,0.08191123622835075,0.2705778255839212
707,1456704120212400,0.08651516161888707,0.0702750159205129,0.271734263051488
708,1456704120227399,0.0884397491497338,0.057141190398261266,0.2461285522845879
709,1456704120249243,0.08083486260419148,0.04430263496615313,0.1924256747696074
710,1456704120272355,0.06470261808852842,0.032721980411617994,0.11536117988505987
711,1456704120287392,0.04369393452233168,0.022176910130452324,0.02541150115862232
