,timestamp,emg1,emg2,emg3,emg4,emg5,emg6,emg7,emg8
0,1456704106225355,0.011496394241681748,0.033903494692029176,0.0,0.010666517403366394,0.03379542557067017,0.029292251039926092,0.014491271399122142,0.004470759581302908
1,1456704106225355,0.032525772033668895,0.07492514976011887,0.02471858482327961,0.029313768603425924,0.06502339078576791,0.062408670674353336,0.03831217906910115,0.019537883248306968
2,1456704106226355,0.05305880500360376,0.11424098862817413,0.0494894089495755,0.04841879771629509,0.0951188831270416,0.09389841538894217,0.061935361728991764,0.03436563466325392
3,1456704106226355,0.07292982164229223,0.15151647215264064,0.0739402102680426,0.06773403706470156,0.12381650521337684,0.12358042586777683,0.08509617183019447,0.04880738417573275
4,1456704106227355,0.09198017504708444,0.18644507838694802,0.0977160737025667,0.08701717398572137,0.15086672623772665,0.1513016863263277,0.1075380627852716,0.06272652078137432
5,1456704106227355,0.11006116732060768,0.21875512904589056,0.12048922822014188,0.10603738726251802,0.1760413624241578,0.17694090422735742,0.12901781113655011,0.07599965920318813
6,1456704106228355,0.1270367424533037,0.24821565916437838,0.14196761346808134,0.124580719483073,0.1991385360056858,0.2004113773490552,0.14931031464135594,0.08851930375700275
7,1456704106228355,0.14278585604137375,0.2746410933846953,0.16190187462837283,0.14245442026169533,0.21998698320258392,0.2216629586051378,0.16821286026922047,0.10019589128229417
8,1456704106239354,0.15720443879518228,0.2978945651984865,0.18009053239243056,0.15949016957355977,0.23844961465447037,0.24068304620486483,0.18554877852347737,0.11095916605731157
9,1456704106239354,0.17020689521581206,0.3178897992341567,0.1963831883470024,0.17554614797208506,0.25442625461930374,0.2574965370041129,0.2011704237329986,0.12075885920728653
10,1456704106254650,0.18172711873618197,0.334591557596179,0.21068175559037683,0.19050798300815394,0.26785552319724254,0.272164717259306,0.21496144133773093,0.12956466250473023
11,1456704106254650,0.19171904851223953,0.34801472564131175,0.22293983585833166,0.20428867591800362,0.278715882357576,0.28478313130945826,0.22683829491494742,0.1373655145258282
12,1456704106255352,0.200156824573463,0.3582221821856931,0.23316047118104724,0.21682767802258396,0.2870259128264826,0.2954785367242529,0.2367510274135481,0.14416825868705851
13,1456704106255352,0.2070346059276961,0.36532165451921644,0.241392557277613,0.2280893195540271,0.29284389645028436,0.3044050937122567,0.244683234643582,0.1499957748601147
14,1456704106270353,0.21236610301293946,0.36946178142508873,0.24772622141107467,0.23806079275824207,0.29626675114555706,0.3117399401280287,0.2506512510649428,0.15488471387636463
15,1456704106270353,0.21618385576533186,0.37082759254642284,0.2522874586534677,0.2467498665329565,0.29742832922493434,0.31767828244643925,0.2547025935272841,0.15888297446172345
16,1456704106278602,0.21853827386176178,0.3696355765601606,0.25523229726777186,0.25418246991394855,0.2964970621575276,0.32242810216555906,0.25691376040954333,0.16204706170318928
17,1456704106278602,0.21949644888432443,0.3661284781683303,0.2567407272181782,0.26040023167709536,0.293672917361403,0.32620455504481893,0.25738751515247127,0.164439459957738
18,1456704106283366,0.21914074756995855,0.3605699477065286,0.25701058120998055,0.26545801139777536,0.2891836282990578,0.32922414975881403,0.2562497864810835,0.16612614127768224
19,1456704106283366,0.21756720113055567,0.35323915977577514,0.25625151539483354,0.26942141680127446,0.2832801766865087,0.33169883939297584,0.25364630629818413,0.1671743125385014
20,1456704106308583,0.21488371540803058,0.3444255042545883,0.254679204865329,0.27236428753869407,0.27623154921441484,0.33383022224468956,0.249739094263575,0.16765048149475095
21,1456704106308583,0.21120813114204584,0.33442343259064244,0.2525098504497339,0.27436614545920224,0.2683188534976364,0.3358040943017286,0.2447028880358208,0.16761889447415235
22,1456704106311583,0.2066661561245884,0.32352752356445513,0.24995508649539536,0.27550966197558857,0.25982894093150133,0.3377856008780343,0.2387216057789035,0.16714036707368904
23,1456704106311583,0.20138917990703548,0.31202782019960207,0.24721737815492714,0.275878251783461,0.2510477314627154,0.3399151951148273,0.23198490796882298,0.166271498622282
24,1456704106337585,0.1955119865221138,0.30020548111590406,0.24448599346087949,0.2755539358531178,0.2422534659795079,0.3423055446464017,0.22468489895433214,0.16506423771387005
25,1456704106337585,0.18917041161900772,0.28832878664930783,0.2419336240380501,0.27461560638097043,0.23371013155517742,0.34503946430115867,0.21701298233980737,0.16356575096337736
26,1456704106344585,0.18249903399128387,0.27664954602949055,0.23971370628120933,0.27313778344086764,0.22566131015899277,0.3481689094659305,0.20915686397419417,0.16181853691758122
27,1456704106344585,0.1756290193418362,0.2653999616845299,0.237958467487361,0.27118990295443346,0.21832468637440727,0.35171503608567256,0.20129768211475632,0.159860720989802
28,1456704106345585,0.16868622692104682,0.2547900065478149,0.23677769850846747,0.2688361330584097,0.2118874148900277,0.35566930404943403,0.19360724025018114,0.1577264675507325
29,1456704106345585,0.16178965036330364,0.24500535101176793,0.2362582376434007,0.26613568076878447,0.20650249995167325,0.3599955624535137,0.18624533323643008,0.15544645194395748
30,1456704106346585,0.15505021061115315,0.23620584319756732,0.23646413196995056,0.2631435195487776,0.2022862820023865,0.36463301123630065,0.17935718941051434,0.15304834575789697
31,1456704106346585,0.14856987107800038,0.22852451371985508,0.2374374186642245,0.25991144115131526,0.19931706637223004,0.3694998943525319,0.17307108508873062,0.15055728155375886
32,1456704106359586,0.14244101664629333,0.2220670537746364,0.23919944528376583,0.2564893122615583,0.19763487270765723,0.3744977530877329,0.1674962130871219,0.1479962781407764
33,1456704106359586,0.13674603083033007,0.2169117051131545,0.2417526283176493,0.2529263943118305,0.19724224184417719,0.37951605769871444,0.1627209009369751,0.14538662303785513
34,1456704106365774,0.13155701198798597,0.21310950427776434,0.24508252984991366,0.2492725610881426,0.19810601534471944,0.38443704487618163,0.15881127394429448,0.1427482213199151
35,1456704106365774,0.1269355825265929,0.2106848421984211,0.2491601078420499,0.24557923269564888,0.20015999762344203,0.3891406168640925,0.15581044362232402,0.14009992467596313
36,1456704106373592,0.1229327613852212,0.2096363242252951,0.2539439711852698,0.24189985462764202,0.20330840815674275,0.3935091910185273,0.15373828132807923,0.13745984730955954
37,1456704106373592,0.11958888502029229,0.20993792994511173,0.25938246399121495,0.2382897978673424,0.207430020427564,0.39743240428200627,0.1525918160813056,0.13484565862705064
38,1456704106388605,0.11693356954688303,0.21154047411840388,0.26541543010071006,0.23480563158743198,0.21238286394562367,0.40081156344563745,0.1523462737898804,0.1322748283910884
39,1456704106388605,0.11498570751549957,0.2143733704277015,0.2719755642145287,0.23150380252457137,0.21800934266385857,0.40356369423433913,0.1529567513700336,0.1297648014912904
40,1456704106404777,0.11375349600799893,0.21834670272046963,0.278989321861067,0.22843882519025197,0.22414160312586523,0.4056249966556128,0.1543604938598304,0.12733309718207703
41,1456704106404777,0.1132345039011267,0.2233536046075022,0.2863774247507591,0.22566113748448588,0.2306069701282485,0.4069534815269069,0.15647971360279847,0.12499734698944515
42,1456704106406771,0.11341579997644922,0.22927293011421365,0.294055058348931,0.22321480901841056,0.23723325987039753,0.4075305653155379,0.15922485529285943,0.12277529035845378
43,1456704106406771,0.11427417082477206,0.23597217258070416,0.3019319065188279,0.2211353057571467,0.2438537902149404,0.407361455039116,0.16249817129198876,0.12068473367358619
44,1456704106419775,0.11577645525954551,0.2433105713699943,0.309912190347696,0.2194475111411939,0.25031194228562886,0.40647426414867505,0.16619743609023063,0.11874345742927517
45,1456704106419775,0.11788001417494307,0.2511423432688086,0.31789487188787685,0.2181641784638819,0.2564651799644899,0.4049179385574303,0.17021960639780825,0.11696904531055612
46,1456704106425773,0.12053334633655842,0.25931997867500406,0.3257741579177814,0.21728494564043926,0.26218848352532487,0.4027591927810995,0.17446423020494564,0.11537861748481097
47,1456704106425773,0.12367685427345051,0.2676975391777472,0.3334404028033811,0.21679598992171917,0.2673771820599277,0.4000787231246854,0.17883642564670926,0.11398847131756329
48,1456704106433778,0.12724376113022634,0.27613388418838636,0.3407814690601003,0.21667034644972702,0.27194917199149937,0.3969669778704776,0.1832492867521406,0.11281364910787404
49,1456704106433778,0.13116117659428958,0.28449574938785027,0.3476845685021696,0.21686886806123862,0.27584649510919507,0.3935197514804256,0.1876256237879741,0.11186745609921708
50,1456704106448768,0.13535130319982724,0.29266059807018735,0.3540385812854632,0.21734176509472294,0.27903623135869954,0.3898338536551525,0.1918990030269388,0.11116095004244793
51,1456704106448768,0.13973276248260497,0.3005191573677787,0.35973682365394505,0.218030629253896,0.2815106454475445,0.38600308178573806,0.19601410277518955,0.11070242519543834
52,1456704106455768,0.1442220078594545,0.307977534595623,0.36468018998001783,0.21887081347868878,0.2832865193291735,0.3821146863043728,0.19992643977437288,0.11049691785626567
53,1456704106455768,0.14873478326823839,0.31495880420070865,0.36878052991919874,0.21979401450270333,0.2844036187007013,0.37824647235249437,0.20360154470007782,0.11054576052088798
54,1456704106465609,0.1531875890846664,0.3214039826364605,0.37196405581032,0.22073089150886888,0.28492228652248663,0.3744646480738278,0.20701369093773853,0.11084620451344836
55,1456704106465609,0.1574991335225603,0.32727235851262954,0.3741745273265549,0.22161355495474702,0.2849202186206363,0.37082250799853356,0.2101443141449455,0.11139111883775646
56,1456704106479632,0.16159177469641525,0.3325411917713976,0.3753759403750224,0.22237777636133854,0.2844885431121836,0.36736000583798195,0.21298028882421696,0.11216876267041254
57,1456704106479632,0.16539298216029263,0.3372048322517124,0.3755544658201536,0.22296480677267996,0.2837273893794882,0.3641042094070572,0.21551223534431846,0.11316262977926429
58,1456704106485735,0.16883685195979045,0.34127335070266407,0.37471944464771545,0.22332274421379408,0.2827411782880538,0.3610705506869922,0.2177330150377714,0.1143513789586239
59,1456704106485735,0.17186569032348636,0.3447708212859615,0.372903333146555,0.22340744025732565,0.2816338775992116,0.3582647090032348,0.21963654083899792,0.1157088862033672
60,1456704106493854,0.1744316446028225,0.34773341452644047,0.37016058036594573,0.2231829685937128,0.28050445091892307,0.35568491275415687,0.22121699159729885,0.11720446714971876
61,1456704106493854,0.1764983180430131,0.35020743715723635,0.3665655005716647,0.22262170143592871,0.2794427049922501,0.3533244200721363,0.22246847188582478,0.1188033151793899
62,1456704106508857,0.1780422667134466,0.35224740779770275,0.3622092758024778,0.22170406678691956,0.2785257164046581,0.3511739390843335,0.22338511067721684,0.12046718496023721
63,1456704106508857,0.17905424603171907,0.3539142135490393,0.357196285124903,0.22041808922930636,0.2778149859865369,0.3492237709505527,0.22396154892448988,0.12215533023883977
64,1456704106516857,0.179540052758273,0.3552733668899239,0.35164000235354936,0.21875883439301824,0.27735441953933127,0.3474654991483343,0.22419373473658225,0.12382568197651468
65,1456704106516857,0.17952080405316834,0.35639337288004813,0.3456587263373799,0.21672787351120285,0.2771691713005637,0.34589310428119796,0.22407992899719256,0.1254362278740221
66,1456704106529859,0.17903252287248164,0.35734421343977363,0.33937140046918624,0.21433286133130525,0.27726532547920607,0.344503456837166,0.22362182075929415,0.1269465276879746
67,1456704106529859,0.17812496716780965,0.35819594513921227,0.3328937420743309,0.21158728406757046,0.2776303466810536,0.34329622649611685,0.22282564991570408,0.12831927559262749
68,1456704106538894,0.1768597364546856,0.35901738172360237,0.3263348520806825,0.2085103891484869,0.2782342124404747,0.3422733294879128,0.2217032228726612,0.12952180722120513
69,1456704106538894,0.17530778182077705,0.3598748018164633,0.3197944264747244,0.20512726008383353,0.27903114877768304,0.34143809358380434,0.22027268541283251,0.1305274473775898
70,1456704106545859,0.1735465040580235,0.3608306083287788,0.31336064598698776,0.20146895614932187,0.2799619087668018,0.34079433357282957,0.218558904074504,0.13131660391303512
71,1456704106545859,0.17165663935533243,0.36194188281373707,0.30710877330440517,0.1975726117730243,0.280956546999072,0.3403454900666423,0.2165933265590331,0.13187753245875983
72,1456704106553859,0.16971911420225855,0.3632588185673777,0.30110043873737824,0.1934813975414479,0.28193763706930064,0.34009390590032523,0.21441324775727702,0.13220672275174516
73,1456704106553859,0.16781201929391432,0.36482306257366565,0.29538355412660533,0.1892442815240845,0.282823851784286,0.3400402309134267,0.21206048381034812,0.13230888489453274
74,1456704106567866,0.16600781973392473,0.3666660305767044,0.2899927683956626,0.18491557587407279,0.28353378415380415,0.340182892754397,0.20957953343647934,0.13219653922216332
75,1456704106567866,0.16437089207686148,0.3688072717408706,0.28495037039209287,0.18055428739681526,0.28398984168404257,0.34051756708381997,0.20701537281714785,0.13188923750337833
76,1456704106576689,0.16295545922476234,0.37125295401042746,0.280267551249968,0.17622330345541934,0.2841220008776928,0.34103661315698813,0.20441107505413522,0.1314124681898073
77,1456704106576689,0.16180397960328646,0.3739945328951875,0.27594594610625267,0.17198843953214704,0.28387116744949986,0.341728476906398,0.20180545579098363,0.13079632177063966
78,1456704106583434,0.16094603229846066,0.3770076668604626,0.27197937711711395,0.16791735996187948,0.283191871875919,0.3425770827525623,0.19923092733951028,0.13007400712040243
79,1456704106583434,0.16039772079736472,0.3802514542397799,0.2683557243882741,0.16407836797632558,0.28205407158864926,0.3435612480218198,0.19671171155837153,0.12928031267201406
80,1456704106598900,0.16016159563093976,0.38366808071083647,0.2650588623954845,0.1605390522536119,0.28044393620470803,0.3446541794262581,0.1942625280661867,0.12845010106829646
81,1456704106598900,0.1602270739967709,0.3871829651110889,0.2620706054585161,0.15736477867842621,0.2783636199414353,0.3458231455155707,0.19188783897913375,0.1276169168660521
82,1456704106604895,0.16057131175596123,0.3907054641339834,0.2593725975444751,0.15461703284776943,0.27583012603729296,0.3470294353351061,0.18958169236271144,0.12681177355915416
83,1456704106604895,0.1611604575119702,0.39413015737958046,0.25694806466902764,0.15235165287408078,0.27287343085217125,0.34822869207644186,0.18732816782072467,0.12606216806622442
84,1456704106612894,0.16195119473994998,0.3973387127397192,0.2547833327765313,0.15061703150057681,0.2695340782122828,0.3493716588057525,0.1851023954379916,0.12539135141173557
85,1456704106612894,0.16289246925681078,0.4002023395588269,0.2528690044144831,0.14945239133486482,0.2658604824709885,0.3504053167059101,0.18287209662234316,0.1248178689718728
86,1456704106628894,0.16392731312064857,0.4025848508465902,0.25120068773005444,0.14888623773650214,0.2619061793273122,0.3512743557167055,0.18059958022874792,0.1243553745650363
87,1456704106628894,0.1649947035766269,0.40434634398413616,0.24977919292170786,0.14893507729266464,0.25772723184248564,0.351922894425395,0.17824411277086272,0.12401271657184341
88,1456704106636113,0.16603142175354862,0.4053474643782975,0.248610162718319,0.14960246725303958,0.2533799464593346,0.35229634701020646,0.17576455911908362,0.12379428481612088
89,1456704106636113,0.1669738944617851,0.40545415622558995,0.2477031714177386,0.15087843977773419,0.2489189969441123,0.3523433138683041,0.1731221584776743,0.123700590069903
90,1456704106642901,0.16776001537760754,0.4045427449327393,0.24707038154195393,0.152739327151436,0.24439600540378087,0.3520173628977677,0.17028327008043262,0.12372902582619244
91,1456704106642901,0.16833094742493535,0.40250513852078273,0.24672487082481478,0.1551480002988917,0.2398585913235487,0.35127858679450774,0.16722191070017942,0.12387474133543544
92,1456704106659159,0.1686329007957779,0.39925388476392154,0.24667874542579307,0.1580545199459377,0.23534986682122952,0.3500948640593515,0.16392192264357788,0.12413154314711404
93,1456704106659159,0.1686188603981307,0.3947267942470876,0.2469411566924438,0.16139718483750462,0.23090832804099004,0.3484427982337994,0.1603786502943375,0.12449274308159222
94,1456704106665109,0.16825021056104889,0.3888908489227793,0.2475163403615795,0.16510394752163063,0.22656807643531796,0.346308351652312,0.1566000445670641,0.12495188085765233
95,1456704106665109,0.16749818528710544,0.38174515334579173,0.24840178919773812,0.1690941600020069,0.2223593042835272,0.3436872282689952,0.15260714227206926,0.12550326365520692
96,1456704106673740,0.16634506917798894,0.3733227404268141,0.24958665340912628,0.1732806059212766,0.21830898948577937,0.34058508636168267,0.14843388772216456,0.12614228192585045
97,1456704106673740,0.16478508917122586,0.3636911137416963,0.25105044821110256,0.17757176455196771,0.21444175427904488,0.3370176604643399,0.1441262953812709,0.12686548428670105
98,1456704106688973,0.1628249596005564,0.3529514890753226,0.25276213806188846,0.18187423409469747,0.21078084360988564,0.33301084446843554,0.13974100086038313,0.12767042179901433
99,1456704106688973,0.16048405794736342,0.34123677572417954,0.2546796587210204,0.18609522725232167,0.20734916877924014,0.3286007526950718,0.13534329780337645,0.1285552939047865
100,1456704106695974,0.15779421229752494,0.32870840710747573,0.25674993126820705,0.19014504770012827,0.20417034304529902,0.32383374424300077,0.13100479016309374,0.12951843966671397
101,1456704106695974,0.15479908274105048,0.3155521931356361,0.2589094164053321,0.19393945706115429,0.20126961657908213,0.31876636912963724,0.12680079810660042,0.1305577228011472
102,1456704106710975,0.15155312724911735,0.3019734205953378,0.2610852455518582,0.19740184144129044,0.1986746089883855,0.31346517632449955,0.12280765089423011,0.13166986346383028
103,1456704106710975,0.14812016104205694,0.28819146114959027,0.2631969419555317,0.20046508835897342,0.19641574265891762,0.30800631929742567,0.11909999019034492,0.1328497750991927
104,1456704106719340,0.144571545491144,0.27443415066907834,0.2651587152732701,0.203073096886382,0.1945262938360849,0.3024749033492511,0.11574819336521726,0.13408996771812565
105,1456704106719340,0.14098407405263233,0.26093218192951284,0.26688228345486104,0.20518186253261136,0.19304199536134256,0.2969640326232784,0.11281600889177043,0.13538007592140675
106,1456704106725262,0.13743765184733298,0.24791371806635146,0.2682801444821726,0.20676009216917082,0.19200015281033003,0.2915735220115633,0.11035847897412458,0.13670655872339102
107,1456704106725262,0.1340128844656298,0.23559939525142845,0.26926918464990024,0.20778931115975746,0.19143828585794795,0.28640823607258814,0.10842021052018695,0.13805260006136144
108,1456704106733280,0.13078869547350688,0.22419783875338498,0.26977447624767403,0.20826343918506748,0.19139237058323372,0.2815760157310985,0.1070340430049313,0.13939821954293038
109,1456704106733280,0.12784008055715015,0.21390176623642315,0.2697330951521659,0.20818784955930278,0.19189481045908788,0.27718517234628093,0.10622014949166306,0.14072058905469462
110,1456704106747978,0.12523608266042868,0.20488470263618921,0.2690977750038227,0.20757798616837655,0.19297228914385794,0.27334157349966637,0.10598559518532905,0.14199454375819112
111,1456704106747978,0.12303804284156811,0.1972982897961938,0.26784019516406193,0.20645766554167724,0.19464366053379947,0.27014540665067505,0.10632436486901872,0.14319327170670826
112,1456704106755262,0.1212981522073104,0.19127014234840828,0.26595367029678885,0.20485721260510092,0.19691801815752952,0.2676877710439745,0.10721785484893444,0.14428916045201348
113,1456704106755262,0.12005830655874071,0.18690217619880636,0.2634549929794717,0.20281156818686027,0.19979306384384957,0.26604729572909186,0.10863580836974225,0.14525476962427197
114,1456704106769985,0.11934925298024791,0.1842693186589081,0.2603852144897237,0.20035848572471163,0.20325387390302802,0.2652869914093583,0.1105376584576143,0.14606388579677587
115,1456704106769985,0.1191900194733739,0.18341850794950504,0.2568092452035415,0.19753691873941198,0.20727214483173104,0.2654515103388163,0.11287422821880284,0.14669260368232573
116,1456704106779501,0.11958762917092781,0.18436791159942914,0.25281427912016846,0.19438568837159761,0.21180598614188825,0.2665649309343856,0.11558972420882833,0.14712037235459924
117,1456704106779501,0.12053710888775142,0.18710633453326683,0.24850714594044895,0.1909425052906664,0.2168003080719679,0.2686291330629809,0.11862394458860369,0.1473309499572142
118,1456704106785797,0.12202180172498944,0.1915928363788817,0.24401075507026745,0.18724339936861112,0.22218782053769434,0.27162280684818063,0.12191461163394066,0.14731322165967886
119,1456704106785797,0.1240139845147902,0.19775662317526513,0.239459839651525,0.18332258270067395,0.2278906134070411,0.27550114031553724,0.12539972634226093,0.14706184658611526
120,1456704106793403,0.1264757729847034,0.20549731509782238,0.23499624604341787,0.17921273680424032,0.23382222995974453,0.28019623777354713,0.12901983053234953,0.14657770388211125
121,1456704106793403,0.1293602731925239,0.21468571390841756,0.23076403362901377,0.17494567593816596,0.23989008764402064,0.2856183096873883,0.13272005284611574,0.1458681040476721
122,1456704106808340,0.13261291654053842,0.2251651967301534,0.2269046421361402,0.17055330179341424,0.24599806170566596,0.29165764131712557,0.13645181524420935,0.144946726139817
123,1456704106808340,0.13617290933339524,0.23675384408356454,0.22355235344700025,0.16606873702918978,0.2520490432103562,0.29818730096271034,0.14017408820632357,0.14383324710116396
124,1456704106824376,0.13997473952936743,0.24924737085596438,0.22083023090840484,0.16152751054571268,0.2579473173665122,0.3050664981838738,0.1438541075552125,0.14255265329826103
125,1456704106824376,0.1439497026999044,0.26242287285717186,0.21884666760929,0.15696866705912202,0.2636006709348768,0.31214445183904393,0.1474675089794357,0.14113426177280627
126,1456704106830011,0.1480274207613638,0.2760433358111905,0.21769262213236873,0.1524356835397881,0.2689222067381624,0.3192645844504532,0.15099789597717134,0.13961051584695755
127,1456704106830011,0.15213732486949322,0.28986278907333674,0.21743957453087842,0.14797708834469644,0.27383189707222855,0.3262688385079606,0.15443591352418287,0.13801564089453552
128,1456704106839372,0.15621006762796988,0.3036319365366379,0.21813820414014692,0.14364669367393515,0.2782579389096238,0.3330019235401869,0.15777793351398137,0.13638424622833026
129,1456704106839372,0.1601788332643772,0.3171040694467444,0.219817772433889,0.1395033735874512,0.28213798375675964,0.3393153429789933,0.16102447066798706,0.13474994842569654
130,1456704106845011,0.16398052852041284,0.3300410523656284,0.22248617557427944,0.1356103507047984,0.2854203030524752,0.34507109749091175,0.16417845242384055,0.13314408274498915
131,1456704106845011,0.16755684923845163,0.3422191601767219,0.22613060205265675,0.13203399009111047,0.28806491939988293,0.3501450038287384,0.1672434675176651,0.13159456417025447
132,1456704106853012,0.17085521876817167,0.3534345352449033,0.23071869732401146,0.12884213414083545,0.29004469755119183,0.354429601271689,0.1702221135433915,0.13012495205809613
133,1456704106853012,0.173829587261284,0.3635080550254534,0.23620011708438313,0.12610204752119372,0.2913463551330576,0.3578366353206137,0.17311455507321127,0.1287537602417057
134,1456704106868018,0.1764410734125953,0.37228945945744135,0.24250835096974666,0.12387807538054817,0.29197131541555565,0.3602991041747399,0.17591739068747186,0.1274940417716477
135,1456704106868018,0.17865842685862018,0.37966064991247434,0.24956270689488746,0.12222914473459227,0.2919362785485091,0.36177283126149795,0.17862290462502284,0.12635326765416643
136,1456704106875340,0.18045829053119744,0.3855380985671221,0.25727034898129536,0.12120625130011259,0.29127335117389325,0.36223750131064725,0.18121874705197907,0.12533351080739405
137,1456704106875340,0.18182524514525608,0.3898743056004566,0.26552828219387586,0.12085007077898233,0.29002957966456866,0.36169708493629615,0.18368805505089045,0.1244319364863165
138,1456704106890794,0.1827516214912055,0.3926582502573793,0.27422518728430056,0.12118881876749317,0.2882657970962059,0.3601795862157463,0.1860100021841724,0.12364158545785345
139,1456704106890794,0.1832370741833161,0.39391481791715816,0.28324303648526605,0.12223646268442465,0.28605479850788224,0.3577360736395613,0.18816074809445496,0.12295241433773227
140,1456704106899831,0.1832879268991499,0.3937032298975356,0.2924584643459356,0.12399136766618604,0.28347895452043326,0.35443898403003427,0.19011474685658786,0.1223525306092526
141,1456704106899831,0.18291632133610397,0.3921145365541758,0.3017439272791204,0.12643543952842892,0.2806274223255531,0.35037972033131837,0.19184635976142872,0.12182953537032007
142,1456704106905792,0.18213922416238684,0.3892682665745325,0.31096874506493366,0.12953381054972438,0.277593117796605,0.3456656073821632,0.19333170110147357,0.12137187299350173
143,1456704106905792,0.18097736398755004,0.38530837546451624,0.3200001523184379,0.13323509419520366,0.27446959919616426,0.34041632133479055,0.19455061947379698,0.12097008603502885
144,1456704106913634,0.17945417979626554,0.3803986971381185,0.3287044848966553,0.13747221107726504,0.27134799886834,0.3347599492595031,0.19548868188803128,0.12061788478211603
145,1456704106913634,0.17759485887240684,0.374718140108236,0.3369485954844188,0.14216376190308802,0.26831412624978335,0.3288288566424063,0.19613899626767586,0.12031296398171558
146,1456704106928797,0.17542552564553923,0.36845585765467154,0.3446015502945539,0.1472158969628728,0.26544585108295543,0.3227555489123966,0.1965037003616099,0.12005753024935911
147,1456704106928797,0.17297261865842997,0.3618065666870011,0.3515366133347061,0.15252460940526966,0.2628108578594737,0.3166687134344254,0.19659497212293234,0.11985852956836544
148,1456704106935794,0.17026246821504118,0.35496612572426395,0.35763348326694083,0.157978364314469,0.2604648420784568,0.3106896151638364,0.19643546998845826,0.11972757753117287
149,1456704106935794,0.16732106737994096,0.3481274394326055,0.36278071988656824,0.16346096855440373,0.2584502022343357,0.3049289879813729,0.1960581743981906,0.11968060432856682
150,1456704106950637,0.1641740161781295,0.34147674052078014,0.3668782815581496,0.16885458466694908,0.2567952718633912,0.29948452152819394,0.1955056611238182,0.11973724308613216
151,1456704106950637,0.16084661188820987,0.3351902888342376,0.3698400753920335,0.17404278963100553,0.255514123422488,0.29443900275897544,0.19482888495424522,0.11992000957092834
152,1456704106959754,0.1573640531938108,0.32943150366996304,0.371596387378917,0.1789135728246387,0.25460694696754516,0.28985913750222764,0.19408558412704793,0.12025333081897467
153,1456704106959754,0.15375171957520722,0.32434851410573845,0.3720960262448928,0.18336216479006312,0.254060963292876,0.28579504641406495,0.19333842778690558,0.1207624764934669
154,1456704106965637,0.15003547989596147,0.3200720892867657,0.3713080155681639,0.18729360284593233,0.25385178772640604,0.28228039803280314,0.19265302167001727,0.1214724362612652
155,1456704106965637,0.14624197808905046,0.3167138995692272,0.3692227155592218,0.19062497166571113,0.25394512691341925,0.27933310844790304,0.19209587085482627,0.12240677574238373
156,1456704106981658,0.14239884231211541,0.31436505292057715,0.36585232168806603,0.19328728777906481,0.25429866668728446,0.27695650495161805,0.19173238298371276,0.12358649613810747
157,1456704106981658,0.13853476965055284,0.3130948423713112,0.36123073504191877,0.19522700812676774,0.2548639959899723,0.27514082804209444,0.19162497945775409,0.12502891881378467
158,1456704106988458,0.13467945257442487,0.3129496286012189,0.3554128213594985,0.19640713612383504,0.2555884205731307,0.2738649420427864,0.19183135841536847,0.12674661340712595
159,1456704106988458,0.13086333388956461,0.3139517788166983,0.34847309569335816,0.19680789102058197,0.25641656200805646,0.27309813965200397,0.19240292543762685,0.12874638630127525
160,1456704106995748,0.12711719787187897,0.31609861199981076,0.34050390618682047,0.19642691005461213,0.257291708213934,0.27280194811614794,0.19338339051884734,0.13102835009071076
161,1456704106995748,0.12347162142150094,0.3193613689369568,0.33161322772757873,0.19527896608872589,0.2581569577904601,0.2729318634241198,0.1948075298199974,0.13358510590893627
162,1456704107010791,0.1199563221466181,0.3236843060437303,0.3219221825085853,0.19339519840792127,0.25895625147764095,0.2734389534514355,0.1967001196156455,0.13640108388236302
163,1456704107010791,0.11659945487038906,0.32898406739911834,0.3115623775980752,0.1908218709964586,0.2596353928693624,0.2742712865724295,0.1990750598219009,0.13945209714805176
164,1456704107019824,0.11342692193837135,0.33514950785222475,0.30067312514215144,0.18761869707842527,0.26014313369926606,0.27537516313996624,0.20193471901780768,0.14270517174300656
165,1456704107019824,0.11046176772830521,0.34204213627444185,0.2893986188618404,0.1838567989982801,0.2604323566657484,0.27669615172458156,0.20526955245181164,0.14611871725738665
166,1456704107025784,0.10772371960229943,0.349497337818348,0.2778851684436026,0.17961639611375835,0.2604613460463866,0.2781799505488727,0.20905805536318425,0.1496430954488945
167,1456704107025784,0.10522891965975055,0.35732651739797594,0.2662786024415079,0.174984322610477,0.26019509831994625,0.2797731022729773,0.21326710258725334,0.15322162211797663
168,1456704107041675,0.10298987065748487,0.3653202728551409,0.2547219205035737,0.17005147671582654,0.2596065937920404,0.2814235964555861,0.21785269549635364,0.1567920052170698
169,1456704107041675,0.1010156001674963,0.37325265151981024,0.24335322301728762,0.16491029829497952,0.2586779282603128,0.28308140499682305,0.22276110282300177,0.1602881867005998
170,1456704107048670,0.09931203113625084,0.38088647796427855,0.23230389973290327,0.15965236111133113,0.2574011915803802,0.2846990014501259,0.227930350360761,0.16364252222129333
171,1456704107048670,0.09788253349836838,0.38797967586585397,0.22169703504301963,0.15436614636879717,0.2557789817717395,0.28623190476701565,0.2332919855254087,0.1667882037379761
172,1456704107063671,0.09672861776944149,0.39429244536359365,0.21164598578307298,0.14913504045671253,0.2538244719683919,0.28763926661928163,0.23877301924410158,0.16966180603925146
173,1456704107063671,0.09585071586700464,0.39959509338680715,0.20225309873639236,0.1440355813925196,0.251561008792963,0.28888450155025336,0.244297939978206,0.17220582018140176
174,1456704107069670,0.09524897839969158,0.4036762427207359,0.19360855006000474,0.13913597045785706,0.2490212948599006,0.2899359506637054,0.24979071202963202,0.17437102949065597
175,1456704107069670,0.09492400541065582,0.40635106537372934,0.18578930153884202,0.13449486585440262,0.24624626238168498,0.2907675760731337,0.2551767087959311,0.17611859334811736
176,1456704107079192,0.0948774226393284,0.4074691041721043,0.17885817792704684,0.13016047749984594,0.24328376080562292,0.2913596970402973,0.2603845702101666,0.17742172971897285
177,1456704107079192,0.09511221947226098,0.4069211815000466,0.17286307840304124,0.12616997954476497,0.24018716180638044,0.29169978082871595,0.26534798620870353,0.17826691837844497
178,1456704107085197,0.0956327779722969,0.40464487284335926,0.16783634573950673,0.1225492458690157,0.23701394384493,0.29178327999660075,0.2700073851805325,0.17865457146974204
179,1456704107085197,0.09644454512942338,0.4006280733941178,0.16379432932923446,0.11931289592725082,0.2338242737005485,0.29161447221403014,0.27431146271422696,0.17859913532858213
180,1456704107101249,0.09755333534886503,0.3949103239857685,0.16073719169596087,0.1164646213715545,0.23067957077749457,0.29120722650535114,0.2782184503956037,0.17812860763851396
181,1456704107101249,0.09896429720646745,0.3875817728864206,0.15864901894421046,0.11399775413628428,0.22764103103582667,0.29058559817991625,0.28169702345829123,0.17728348802338365
182,1456704107108210,0.10068062819641538,0.3787798802127252,0.15749829620929112,0.11189603535747218,0.22476809909759507,0.28978414113091855,0.28472678507296173,0.17611522623876325
183,1456704107108210,0.10270215832635379,0.3686841587582016,0.1572387932562894,0.11013455049486769,0.22211689906015478,0.28884782264829467,0.28729831906048964,0.17468427265453274
184,1456704107115211,0.10502393834945906,0.35750935778669496,0.15781087466876556,0.10868080662494171,0.21973865599145034,0.28783144007271727,0.2894128393736753,0.17305785258026635
185,1456704107115211,0.10763496229567143,0.3454975468537989,0.15914321343934942,0.10749593661910674,0.21767815521439268,0.28679847306470624,0.2910814775356365,0.17130757742105665
186,1456704107132211,0.11051713442126333,0.33290956778507347,0.16115485787160058,0.1065360153376534,0.2159722948044452,0.2858193547520181,0.29232425573781606,0.16950698538159403
187,1456704107132211,0.11364456508718337,0.3200163018015294,0.16375758416038202,0.1057534660550372,0.2146487909250116,0.2849692014543437,0.2931688046962065,0.16772908735545178
188,1456704107139212,0.11698325205558777,0.3070901457448071,0.1668584545682153,0.10509852895938952,0.2137250978115829,0.28432509374589077,0.29364889825453067,0.16604398702191103
189,1456704107139212,0.12049117439586067,0.29439701488463343,0.17036248417506372,0.10452076307101443,0.21320760342965878,0.28396304045716286,0.2938028877640841,0.16451664697814156
190,1456704107145212,0.1241187969701202,0.2821891054195185,0.17417529711848154,0.10397055515404104,0.2130911579538952,0.2839547775348531,0.2936721274066285,0.16320487657077065
191,1456704107145212,0.12780995666077152,0.2706985711423016,0.17820563650428356,0.10340060752188653,0.21335898920765106,0.28436455898203655,0.2932994784112904,0.16215761224233144
192,1456704107161212,0.13150307916322657,0.26013220074876753,0.18236759116187276,0.10276736965803883,0.21398305954875074,0.28524609216714264,0.2927279565160422,0.16141354547747724
193,1456704107161212,0.1351326584048635,0.25066712396015567,0.18658241763836161,0.10203237239901383,0.2149249171739556,0.2866397572755111,0.2919995513658847,0.16100013214097514
194,1456704107168248,0.13863092052732756,0.24244753049620854,0.190779863736163,0.10116342665562073,0.21613708133630882,0.2885702331075626,0.29115422162277915,0.16093299629975918
195,1456704107168248,0.1419295922976218,0.2355823647615498,0.19489894374624656,0.10013566421195681,0.21756496932330452,0.2910446319516265,0.29022906777332363,0.16121572598055534
196,1456704107175226,0.14496169993992392,0.23014395854597425,0.19888817706840076,0.09893241859295514,0.21914932737172768,0.2940512254478082,0.2892576949938244,0.16184005036447535
197,1456704107175226,0.14766333666910209,0.2261675713082142,0.20270536451829513,0.09754595748401354,0.22082908065094564,0.2975588183971611,0.28826978237720524,0.16278638632560236
198,1456704107190233,0.14997535375127827,0.2236518157095243,0.20631701560743865,0.09597807959419515,0.22254448053378809,0.3015167997584748,0.2872908660409525,0.16402474293756272
199,1456704107190233,0.15184494862838432,0.22255995441223156,0.20969755081479352,0.09424058137753119,0.22424040240201337,0.3058558794979123,0.28634232893360095,0.16551597314236272
200,1456704107199234,0.15322713757500056,0.2228220585539217,0.21282840040702336,0.09235558687687957,0.22586962880057318,0.3104895118778533,0.28544157891071364,0.16721335952120434
201,1456704107199234,0.15408610202589978,0.22433801141512347,0.21569711428845062,0.09035571945485017,0.22739593844265624,0.3153159979408389,0.28460239037544294,0.16906450931031441
202,1456704107205234,0.1543963911942914,0.22698131830363266,0.2182965800814582,0.08828408079478126,0.22879681584283112,0.32022123615450937,0.28383537322573127,0.17101350772770996
203,1456704107205234,0.1541439609129106,0.23060364801930078,0.22062441425774929,0.08619399538468407,0.23006560617556393,0.32508205479696584,0.28314850554223553,0.1730032442266663
204,1456704107221236,0.15332703249970422,0.23503999086495292,0.22268254700074594,0.08414848128180136,0.23121297141865516,0.32977003157418666,0.28254762979037507,0.1749777965873225
205,1456704107221236,0.15195675683978224,0.24011428012843777,0.2244769725239518,0.08221942015896229,0.2322675589932328,0.33415568899374104,0.28203678973457963,0.1768847426268141
206,1456704107228236,0.1500576615025552,0.245645289795377,0.2260175916171682,0.08048641837069635,0.2332758645551233,0.33811293238816553,0.2816182971996891,0.17867727227350338
207,1456704107228236,0.14766784742936417,0.2514525923784292,0.22731804463019847,0.07903537197321868,0.23430133770246195,0.34152355998401135,0.281292460518425,0.18031599484527555
208,1456704107235236,0.14483889606442638,0.2573623433119602,0.2283954314803633,0.07795676784585612,0.23542282794910244,0.34428162948143004,0.2810569578027977,0.18177037466731052
209,1456704107235236,0.14163545156453566,0.2632126607638038,0.22926983846698218,0.07734376576045088,0.2367324987502934,0.3462974370676946,0.28090588765887053,0.18301977036380224
210,1456704107250242,0.13813445191238422,0.26885839584702087,0.22996362633184922,0.07729011050097155,0.23833335721378457,0.34750087497895676,0.28082858525269977,0.1840540832108119
211,1456704107250242,0.13442399267219085,0.2741751314268718,0.2305004729070005,0.07788792156878269,0.2403365544634715,0.3478439814370598,0.2808083496011208,0.18487403197275273
212,1456704107259240,0.1306018182665133,0.2790622939394099,0.23090420980744558,0.07922540523871363,0.2428585986485241,0.3473025592213468,0.2808212670126071,0.1854910722947746
213,1456704107259240,0.12677345251228903,0.28344530130108364,0.23119753964584056,0.0813845328027547,0.24601859256150965,0.34587680234741197,0.2808353231690957,0.18592697785140122
214,1456704107265239,0.12305000714934186,0.28727670100976765,0.23140074944446962,0.08443873026408652,0.24993557505795613,0.34359094024215286,0.28080997892546994,0.18621310622006182
215,1456704107265239,0.11954574360655934,0.2905362859407438,0.23153053996261438,0.08845062732108826,0.2547260189052094,0.3404919863016721,0.28069635003064974,0.18638938835244714
216,1456704107281459,0.1163754989869225,0.29323022316783187,0.23159908022304584,0.09346991573597581,0.2605015133924437,0.3366477445180464,0.28043808126089687,0.18650309828686812
217,1456704107281459,0.11365210690803014,0.2953892922383935,0.23161338101376297,0.09953136857411138,0.26736663085869494,0.33214426782893136,0.2799729483671484,0.18660746358046312
218,1456704107288459,0.11148394070743504,0.29706638360221804,0.23157506018336296,0.10665307301096631,0.27541694505781755,0.32708297967575345,0.27923516720046443,0.1867601635430354
219,1456704107288459,0.10997268712413516,0.298333434323804,0.23148054511841185,0.114834931783938,0.2847371512488242,0.32157767536108006,0.2781583412185682,0.1870217488957265
220,1456704107295666,0.10921143239855545,0.29927797656502936,0.23132172606862814,0.12405749215997076,0.2953992472824013,0.31575160547341385,0.27667893211719496,0.1874540207889366
221,1456704107295666,0.10928311387471985,0.29999945971938863,0.23108703934623007,0.13428116387126726,0.3074607655903943,0.30973480037450407,0.2747400918954181,0.18811842578772828
222,1456704107310672,0.11025935955499905,0.3006054886698294,0.23076292420734987,0.14544588420859084,0.32096307266707036,0.3036617329164759,0.2722956533262012,0.18907453724655504
223,1456704107310672,0.11219970712616718,0.3012080989724995,0.23033556803953362,0.15747127601831784,0.33592975770553324,0.29766935713102466,0.2693140456700551,0.19037869003075064
224,1456704107319676,0.11515116419051373,0.3019201674371721,0.22979283677344362,0.17025732437081595,0.3523651226593209,0.2918955112842001,0.2657818844818725,0.1920828176719903
225,1456704107319676,0.11914804444462399,0.302852036075362,0.2291262805082239,0.18368557749927253,0.37025278075008533,0.28647762764362306,0.2617069832068172,0.19423351631763996
226,1456704107333715,0.12421199578258987,0.30410840560588104,0.22833310309139326,0.19762086375832116,0.38955437782744057,0.28155164256139975,0.2571205694561897,0.1968713311896054
227,1456704107333715,0.13035213456523645,0.30578553071857184,0.22741798025410884,0.21191350586917615,0.41020846740385364,0.277250954736782,0.25207857256229843,0.20003023021947303
228,1456704107341472,0.13756521862764293,0.3079687292015447,0.22639459619450036,0.22640199640341613,0.4321295927448204,0.27370525753784913,0.24666195264800347,0.20373720291707423
229,1456704107341472,0.14583581967200282,0.31073020548520147,0.22528674730931736,0.24091606845534702,0.4552076559504775,0.27103909662549247,0.24097611516382736,0.2080119090417592
230,1456704107356714,0.1551364764683158,0.3141271843490762,0.22412885344649075,0.25528005712610685,0.4793076708811458,0.2693700768889906,0.2351494810736979,0.21286630206978918
231,1456704107356714,0.16542781632222942,0.3182003487218308,0.22296574707638328,0.26931641277951535,0.5042699854282972,0.26880673241159025,0.2293312837697065,0.21830416287579557
232,1456704107357713,0.1766586335973759,0.3229725737473425,0.22185169152912732,0.2828492129474141,0.5299110185814893,0.26944614402785566,0.223688663923162,0.2243205035331716
233,1456704107357713,0.18876592632767342,0.3284479450960369,0.22084868953344242,0.29570754056756265,0.5560245128926053,0.2713714245349726,0.2184031419272018,0.23090084698031263
234,1456704107370474,0.20167491745326582,0.3346110453638029,0.2200242363252274,0.3077286450948484,0.582383283491014,0.27464919727117937,0.21366656422731348,0.23802044599655323
235,1456704107370474,0.21529911361096304,0.34142650129226143,0.21944871678603928,0.31876084671885363,0.608741460599659,0.2793271860066034,0.20967663482685414,0.2456435479959071
236,1456704107379483,0.2295404705248909,0.3488388181873765,0.21919264891303336,0.32866615388245546,0.6348372473513859,0.28543202642381227,0.20663214431338905,0.2537228222656975
237,1456704107379483,0.24428973875684307,0.3567725738402838,0.21932395776166122,0.3373225496109859,0.6603962080830419,0.292967404005873,0.20472800243453365,0.26219904758422546
238,1456704107393402,0.25942705928868814,0.3651330716851673,0.2199054379327619,0.34462589552926076,0.6851350555936143,0.3019126149159837,0.20415018525546272,0.27100112581664537
239,1456704107393402,0.2748228645111118,0.3738075484568321,0.22099253008971534,0.350491417892506,0.7087658525967666,0.31222163407945425,0.20507072269370147,0.2800464549526798
240,1456704107401402,0.2903391186444548,0.3826670088751548,0.22263149632737436,0.35485476212885864,0.7310005192320911,0.3238227604378915,0.2076428550882494,0.2892416727389533
241,1456704107401402,0.30583091311653854,0.3915687299219474,0.2248580342113414,0.35767261493297253,0.7515555476879814,0.3366188910796526,0.21199647070792008,0.29848376986262515
242,1456704107416406,0.3211484252779296,0.40035943192997725,0.22769632804869547,0.35892289591036125,0.7701568331260833,0.35048844926593103,0.21823391797941735,0.30766156108402365
243,1456704107416406,0.3361392444556175,0.40887904519724816,0.23115850280063024,0.35860451739752136,0.7865444978756718,0.36528695735669797,0.2264262870841719,0.31665749175334584
244,1456704107417404,0.3506510503576415,0.4169649232678638,0.23524441983607935,0.35673670108175565,0.8004775154632074,0.38084920812907797,0.23661027297901702,0.32534975448185277
245,1456704107417404,0.3645345873893844,0.4244562970403253,0.23994173450529274,0.3533578348210585,0.8117378903360034,0.396991949431554,0.24878574181327145,0.33361469553204676
246,1456704107430199,0.37764681879174167,0.4311987459540987,0.245226124970958,0.3485238767388408,0.8201341790241736,0.4135169656074931,0.2629141047285955,0.3413294832278611
247,1456704107430199,0.389854076266869,0.4370484748130005,0.2510615962683632,0.34230637390027757,0.825504250290052,0.4302144313227067,0.2789175612918481,0.3483749787879212
248,1456704107439395,0.40103496029788654,0.44187620922138615,0.2574007626066853,0.3347902319400256,0.827717325531527,0.44686643814109195,0.2966792309714854,0.3546387106510597
249,1456704107439395,0.4110827226229727,0.4455705607259781,0.2641850343499334,0.32607140921401095,0.8266754669113746,0.46325063692161444,0.3160441602185849,0.360017833522722
250,1456704107453194,0.4199069074073734,0.44804077629452727,0.271344705415439,0.31625469639715126,0.8223147566159341,0.47914397570718037,0.336821171251655,0.36442195357580814
251,1456704107453194,0.427434148298607,0.4492188627195084,0.2787990318093234,0.30545169445265086,0.8146064140178039,0.4943265348302655,0.3587854957124818,0.3677756992593524
252,1456704107461199,0.4336081767907711,0.44906113036498935,0.2864564601519283,0.29377905088416345,0.8035580342778667,0.5085854759232282,0.38168211205922903,0.3700209054385465
253,1456704107461199,0.4383892283420954,0.44754921232688294,0.2942151790526351,0.28135697807740806,0.7892150419342973,0.5217191324688661,0.40522968969086487,0.3711182766056838
254,1456704107476611,0.44175308894791576,0.4446905905405514,0.3019641408459958,0.2683080571755127,0.7716623696875755,0.5335412654808475,0.429125037392503,0.37104842143929406
255,1456704107476611,0.4436900075490452,0.44051861737283576,0.3095846589959779,0.2547563091566144,0.7510262890666589,0.5438854728242581,0.45304795147633115,0.36981220036083123
256,1456704107477613,0.444203646832287,0.43509197794744214,0.3169526367503765,0.24082648075140137,0.7274762129322271,0.5526096676786808,0.4766663605284427,0.36743037721291094
257,1456704107477613,0.44331018938545697,0.4284935102080378,0.32394142826961697,0.22664345594451962,0.7012261689869371,0.5596004412132006,0.4996416785822676,0.36394259932316014
258,1456704107490477,0.44103766076997136,0.42082830372943175,0.33042527758853035,0.21233168580062767,0.6725355581134653,0.5647770247491313,0.5216343067574309,0.3594057514497685
259,1456704107490477,0.43742546470851207,0.4122210494843462,0.33628322574112723,0.19801454371689559,0.6417088104327396,0.5680945057434212,0.5423092510784523,0.3538917556503502
260,1456704107506582,0.432524050773132,0.40281269921112706,0.3414033213775224,0.18381355232748894,0.6090936412507065,0.569545962479108,0.561341839973906,0.3474849286149627
261,1456704107506582,0.4263945745436037,0.39275657479255144,0.34568691254161343,0.1698474718526626,0.5750777506808877,0.5691632681103214,0.5784235259601773,0.34027904757664507
262,1456704107513195,0.4191083895227884,0.38221411649089904,0.349052739283555,0.15623127370334194,0.5400839616726469,0.5670164382940045,0.5932677358847153,0.3323742941126066
263,1456704107513195,0.4107462378147305,0.37135047570363683,0.35144050347535943,0.1430750461748443,0.5045639318754861,0.5632115080835758,0.6056156811140441,0.3238742313270522
264,1456704107521528,0.4013970745272925,0.3603301559005442,0.35281359154025327,0.130482892409758,0.46899069443505387,0.5578870075941487,0.6152419564156636,0.31488293199623957
265,1456704107521528,0.3911565520241979,0.34931289482575334,0.3531606954368457,0.11855188214479744,0.433850358175539,0.5512091858617842,0.6219596802649926,0.30550233355088413
266,1456704107536526,0.38012527771815674,0.3384499665545628,0.35249621734782727,0.1073711073945244,0.3996333126517553,0.5433662299539666,0.6256249147294614,0.2958298700160127
267,1456704107536526,0.3684070114619315,0.3278810561244575,0.35085950853018383,0.09702087412353458,0.36682525717970726,0.5345618263723937,0.6261401725803442,0.28595642677882704
268,1456704107537196,0.35610697215180714,0.3177318098985306,0.3483131177682253,0.0875720454222319,0.3358983376749471,0.52500847025209,0.623456927428584,0.2759646689570689
269,1456704107537196,0.3433303944799454,0.3081120930616474,0.344940278192321,0.07908553992148767,0.3073026369373661,0.5149209136123636,0.6175771159353951,0.26592779239154163
270,1456704107550482,0.3301814424060792,0.2991149099831561,0.34084185859482397,0.07161197944371868,0.2814582091638977,0.5045100626636235,0.608553632094736,0.2559087345194642
271,1456704107550482,0.3167625563810573,0.2908158885761046,0.33613297780224155,0.06519146903615841,0.25874777936413423,0.4939775163796296,0.5964897936671413,0.24595986647207596
272,1456704107559204,0.3031742799588571,0.28327321673975325,0.33093944669545666,0.05985348101191548,0.23951016321148583,0.4835108239571872,0.5815377541896349,0.23612317140537226
273,1456704107559204,0.2895155694941901,0.27652794560727373,0.32539416722974596,0.05561680659793612,0.22403442138037005,0.47327946952623595,0.5638958590903298,0.22643089716938902
274,1456704107573204,0.275884539189518,0.27060460813268744,0.3196335810748657,0.05248953968144371,0.212554753421631,0.4634315929132842,0.5438049909973807,0.21690665382888036
275,1456704107573204,0.2623795467219467,0.26551210899959227,0.3137942206963232,0.05046906881587226,0.2052461555742353,0.45409150433222795,0.5215440006839045,0.2075669094198713
276,1456704107581514,0.24910049848250468,0.261244826848676,0.3080093779597181,0.049542071408991806,0.20222089392253992,0.4453580879488834,0.49742436741955093,0.1984228208018259
277,1456704107581514,0.2361502472308461,0.2577838639807599,0.30240588890503006,0.04968452017152067,0.20352585545736704,0.4373041661296345,0.47178426277455526,0.1894823168039851
278,1456704107595939,0.22363594742983373,0.2550983965102753,0.29710105544513976,0.05086172142753425,0.20914082785305807,0.42997681886796263,0.4449821895800695,0.18075232398409063
279,1456704107595939,0.21167020766853378,0.25314710430525317,0.29219977553508925,0.05302840711524029,0.21897773170648074,0.4233985635371956,0.4173903425451964,0.17224099533150392
280,1456704107596939,0.20037184634354274,0.2518796794871749,0.28779200095311536,0.05612889986304407,0.23288079762797373,0.41756923367339566,0.3893878213861768,0.16395978221322427
281,1456704107596939,0.1898660484339548,0.25123842632854443,0.28395065993023116,0.06009736791179773,0.2506276593757056,0.4124683634960317,0.36135383576597185,0.1559251918376605
282,1456704107610227,0.18028376279157857,0.25115997818566826,0.280730164655109,0.06485818726252104,0.27193133802925995,0.40805788297970297,0.3336610559249861,0.1481600993389492
283,1456704107610227,0.17176026864446584,0.25157716188683293,0.27816558193102,0.07032643148518126,0.2964431221169002,0.40428494891726946,0.3066692608672628,0.14069452992340767
284,1456704107618947,0.16443294933454877,0.2524210258189785,0.27627249463676284,0.07640851198339497,0.3237563900515488,0.40108477984571655,0.2807194148476203,0.13356588227327817
285,1456704107618947,0.15843840227645833,0.2536230122272867,0.27504753175938595,0.08300299225267381,0.35341145677149205,0.3983834248094645,0.2561282781174554,0.1268186162827565
286,1456704107632942,0.15390905858288387,0.25511720574668445,0.27446949951438465,0.09000159986889504,0.38490154085760203,0.3961004558684057,0.2331836433716472,0.12050346469297898
287,1456704107632942,0.15096948312510994,0.2568425431222978,0.274501012867657,0.09729045888910405,0.41767993064402165,0.39415159997554455,0.212140281891058,0.11467624572159588
288,1456704107640942,0.14973249798355978,0.258744838221852,0.2750905159589042,0.10475156062666979,0.45116838315719604,0.39245130804406825,0.19321666899828469,0.10939635609263035
289,1456704107640942,0.15029524199139016,0.26077847497471285,0.27617459201089894,0.11226448144607877,0.48476674138639575,0.3909152210877302,0.17659253221835097,0.10472501735448966
290,1456704107655947,0.15273525694318205,0.2629076515345571,0.2776804840536438,0.11970834368157693,0.517863722752336,0.38946246592597994,0.16240723543166982,0.10072333982482543
291,1456704107655947,0.15710667991503935,0.2651071048314199,0.27952875877002964,0.12696400191063786,0.5498488071766909,0.38801770608964614,0.15075898469136828,0.09745026338862611
292,1456704107656942,0.16343662402186399,0.26736228185364547,0.28163603793391007,0.13391642231427528,0.5801251082201615,0.38651287847062965,0.1417048165326034,0.09496043402215867
293,1456704107656942,0.17172184827962708,0.26966894877051356,0.2839177015439853,0.14045720694332542,0.6081230250653789,0.38488855862053534,0.13526131079157017,0.09330207770281236
294,1456704107669943,0.18192584396988642,0.2720322590987002,0.28629044935522546,0.14648719617014577,0.6333143506278457,0.38309492295488873,0.13140596140643504,0.09251493848261985
295,1456704107669943,0.19397648652765978,0.274465348083766,0.2886746025433357,0.15191906087904733,0.6552263693407977,0.38109231438445823,0.130079135273233,0.09262835317889337
296,1456704107679449,0.20776440971261045,0.2769875715512989,0.29099603259834533,0.1566797720527594,0.6734553400071757,0.3788514582258275,0.13118654225567236,0.09365953575481067
297,1456704107679449,0.22314225244781324,0.2796225455392652,0.29318762088599043,0.16071281424328535,0.6876786551407799,0.3763534019987746,0.1346021308925143,0.09561213545145118
298,1456704107692965,0.23992490969187474,0.2823961548620365,0.2951901916670226,0.16398000029685633,0.6976649298717249,0.37358925189067776,0.14017132365427734,0.0984751165171607
299,1456704107692965,0.25789088686528167,0.28533467922102224,0.29695292779881133,0.16646275532241775,0.7032813223271431,0.37055975169188965,0.14771451425838045,0.1022219911879182
300,1456704107700970,0.2767848154314911,0.28846314371483783,0.29843334992086656,0.16816276626948115,0.7044975327164236,0.36727472029378977,0.15703075930071517,0.10681042684211023
301,1456704107700970,0.29632114237786317,0.29180395889002647,0.2995969856030754,0.16910192910360372,0.7013861576959819,0.3637523559664429,0.16790160133455326,0.11218224290596235
302,1456704107715966,0.3161889641157423,0.2953758889747888,0.30041686218687175,0.1693215615995058,0.6941193449211892,0.36001843197546407,0.18009496282665974,0.11826380916615666
303,1456704107715966,0.33605793628454655,0.2991933681239413,0.30087293478328186,0.16888088968068352,0.6829619440863658,0.35610543197805855,0.19336905683289243,0.1249668515096473
304,1456704107716966,0.3555851545259957,0.30326615710836385,0.3009515263024018,0.1678548614860681,0.6682615574135039,0.3520516863744988,0.2074762753820197,0.1321896631012426
305,1456704107716966,0.37442286699085275,0.3075992946469072,0.3006448238847732,0.16633138846798448,0.6504360546329888,0.34790056317334006,0.22216703586016986,0.13981870808191735
306,1456704107729967,0.39222684215751324,0.3121932606620009,0.29995044962138917,0.16440814965897874,0.6299592287109405,0.3436997421578755,0.2371935754271576,0.14773059075936923
307,1456704107729967,0.40866516873712755,0.3170442467662323,0.2988710970416644,0.16218912295601576,0.6073453114055013,0.3395005697184669,0.25231367448870035,0.15579434910962084
308,1456704107738972,0.4234272101519671,0.32214443047137836,0.29741419673282943,0.15978102141075137,0.5831330441250474,0.33535746293951424,0.2672942705921795,0.163874021954497
309,1456704107738972,0.43623238566451156,0.32748217463348794,0.29559155650469954,0.1572898046644649,0.5578699366180897,0.3313273086234235,0.2819149133124262,0.1718314348942889
310,1456704107752968,0.44683841599514246,0.33304211490498653,0.29341892507241485,0.15481740647442577,0.5320972662616414,0.3274687868857475,0.29597101865919784,0.17952914704535497
311,1456704107752968,0.4550486672129871,0.33880514103715625,0.29091544857423945,0.1524587806503447,0.5063362797725015,0.3238415492247547,0.3092768960608985,0.18683349591024176
312,1456704107760974,0.4607182668663557,0.3447483080732974,0.28810301598342447,0.1502993324729445,0.48107596194390373,0.3205052110492226,0.32166852323703604,0.19361767061079838
313,1456704107760974,0.4637587465900315,0.3508447278563517,0.2850055189855037,0.14841277705291075,0.4567626416706463,0.31751817089594453,0.333006032159294,0.19976473308441306
314,1456704107776479,0.46414105569292124,0.3570634985530023,0.2816480783708418,0.1468594490626233,0.4337916165564316,0.3149363114088745,0.3431758524878291,0.20517049193328654
315,1456704107776479,0.4618968556504161,0.36336973300176556,0.27805629935178783,0.14568507565565536,0.412500888460582,0.3128116497583173,0.3520924398052868,0.20974611801774254
316,1456704107777478,0.4571180360234295,0.36972473868096,0.274255605834359,0.14492001381021044,0.3931670091950961,0.31119099732558475,0.3596994937192439,0.21342038413477468
317,1456704107777478,0.44995441624039706,0.37608638169465175,0.2702706786801036,0.14457894331757287,0.3760029401689219,0.31011468226982,0.36597055462345074,0.21614142514071136
318,1456704107790388,0.44060965675095254,0.38240964253548554,0.2661250051234639,0.1446609939341028,0.36115774041564463,0.30961539751058625,0.3709088697102227,0.21787795182638459
319,1456704107790388,0.42933550309511875,0.3886473497401163,0.26184054709030335,0.14515026844468162,0.34871782739696094,0.30971725754812035,0.37454643989699704,0.2186198941913552
320,1456704107799381,0.41642458726291853,0.3947510599273587,0.2574375450400096,0.14601670645753664,0.33870951624070506,0.31043516054301146,0.37694219478266905,0.2183784752365055
321,1456704107799381,0.4022020736997798,0.40067203122779443,0.25293446950194787,0.14721722225008008,0.33110253841622483,0.3117745384276618,0.3781792934973388,0.21718572437685563
322,1456704107822487,0.38701646062457873,0.40636219765403736,0.2483481071292733,0.14869704900288727,0.3258142693046835,0.3137315410046834,0.378361616971794,0.21509344658065066
323,1456704107822487,0.3712298503185001,0.41177499464850703,0.2436937369629285,0.15039123672103727,0.32271445985286057,0.3162936579436017,0.3776095910588618,0.2121716750152897
324,1456704107823188,0.3552079973080548,0.41686584473438437,0.23898533611535847,0.15222628071000424,0.3216303612411438,0.319440745907153,0.3760555414055219,0.2085066436868099
325,1456704107823188,0.3393104318923197,0.4215921362603536,0.2342357595372511,0.15412188657478093,0.3223522116403774,0.3231463958206438,0.3738388186452527,0.20419832429933096
326,1456704107836491,0.32388093685611286,0.4259126328652757,0.22945685850517558,0.1559928890246692,0.3246390812828207,0.32737954269528524,0.37110094550372735,0.19935759123776273
327,1456704107836491,0.30923862888061615,0.42978639383761735,0.22465952494554467,0.15775133338740888,0.3282250572512669,0.33210618526739133,0.3679810288067637,0.19410311060227659
328,1456704107837188,0.29566986775043713,0.43317140150212236,0.21985366796112774,0.15930871259734253,0.3328257359374574,0.3372910506349814,0.3646116530543447,0.1885580771477028
329,1456704107837188,0.2834211911293761,0.4360231479281377,0.21504814793471042,0.16057833816300798,0.33814499547366433,0.3428990219005081,0.36111543266624707,0.18284693439381827
330,1456704107850475,0.2726934494394683,0.4382934394151095,0.21025071421225433,0.16147781065853248,0.3438820195487357,0.3488961563755991,0.35760235126350504,0.1770922097688232
331,1456704107850475,0.2636372866449549,0.4399296568473466,0.20546800585066605,0.16193153900239093,0.3497385158432582,0.35525016706750584,0.35416796170444387,0.17141158418093633
332,1456704107859196,0.2563500743456895,0.44087467277853176,0.20070566887893987,0.16187323679846985,0.35542601999661977,0.361930320563418,0.3508924626912893,0.1659152955132783
333,1456704107859196,0.25087436305393257,0.4410675685213242,0.19596861836749085,0.16124829934034285,0.3606731115173827,0.3689067982608209,0.3478406093559724,0.16070394767118984
334,1456704107873232,0.24719787271395213,0.44044521614140164,0.1912614458503205,0.16001593810132186,0.36523229825720316,0.3761496388159367,0.3450623603680028,0.15586676227257054
335,1456704107873232,0.2452550067487876,0.4389447000704425,0.18658895926668634,0.15815092740701,0.3688862637291076,0.3836274082925643,0.3425941170973086,0.15148027351040305
336,1456704107881463,0.24492983946891575,0.43650646359451395,0.18195684431613707,0.1556448158172508,0.37145314493174675,0.39130574282357317,0.3404603729749876,0.1476074350252851
337,1456704107881463,0.24606049708093483,0.433077989910697,0.17737243881721257,0.15250648694398347,0.3727905447716342,0.3991458992376836,0.3386755626989944,0.14429708718224357
338,1456704107896468,0.2484448302030947,0.4286177792284957,0.1728456022701903,0.14876201755591,0.3727980787162083,0.40710344208298593,0.3372458840771295,0.14158372765230934
339,1456704107896468,0.25184725761516086,0.4230993655474924,0.1683896411238283,0.14445385144960293,0.3714183714281588,0.41512718437650564,0.33617087334789264,0.13948753668968006
340,1456704107897670,0.2560066386641024,0.4165151129007749,0.16402222669109648,0.1396393627751591,0.36863651845698286,0.4231584724614847,0.3354445648321514,0.13801462332895326
341,1456704107897670,0.26064499810323727,0.40887952311523923,0.15976622780129984,0.13438891667629743,0.36447810400706926,0.43113086170719467,0.3350561534259907,0.13715746961081676
342,1456704107910795,0.26547687926696617,0.40023178305993684,0.15565037752750682,0.12878355346353126,0.3590059325730958,0.4389701845135645,0.33499016819221866,0.13689555438820358
343,1456704107910795,0.27021904183642603,0.39063730769345906,0.1517097003129061,0.12291242925165224,0.3523156998464109,0.44659498586814134,0.3352262274089628,0.13719614404978872
344,1456704107918469,0.274600156882807,0.38018811490334425,0.14798563898568462,0.11687014328603765,0.3445308911344281,0.45391730354925336,0.33573849188023275,0.13801524985968053
345,1456704107918469,0.27837009595344137,0.3690019858193307,0.1445258395711096,0.11075407200641377,0.33579723413283286,0.46084378463912523,0.33649498783135723,0.13929876275793568
346,1456704107935470,0.28130837936496517,0.35722048078497237,0.14138357709459093,0.10466181317634016,0.326277027934244,0.46727713286645517,0.3374570196418182,0.14098377497006734
347,1456704107935470,0.2832313611218346,0.3450059621022839,0.13861683446656167,0.09868882136131281,0.31614362237604177,0.47311787093973384,0.3385788991996445,0.14300008405679773
348,1456704107941494,0.2839977903224859,0.332537813643086,0.13628706757585407,0.09292629160274092,0.30557625192352134,0.4782663963671436,0.3398081715486267,0.1452718590773628
349,1456704107941494,0.2835124887855191,0.3200080571258498,0.13445769475259936,0.08745932474364751,0.29475535470485986,0.48262531112300894,0.3410864383852812,0.14771943706270946
350,1456704107956764,0.28172801066130065,0.3076165574750803,0.13319234321005533,0.0823653882010503,0.2838584372354959,0.48610199713969876,0.3423507990389096,0.15026121189101005
351,1456704107956764,0.27864429594735596,0.2955659938121758,0.13255288118247024,0.07771307181838213,0.2730564880016974,0.48861138120202596,0.34353585473494813,0.1528155764819578
352,1456704107964473,0.27430646997311525,0.28405675791031193,0.1325972701028884,0.07356112983932613,0.262510910642123,0.4900787953344922,0.344576157027824,0.1553028816590243
353,1456704107964473,0.26880103838102826,0.27328193504740017,0.13337728717613392,0.06995779440958241,0.25237093718133446,0.4904428048083872,0.34540892635117143,0.15764737785956243
354,1456704107971498,0.26225077835024485,0.26342251857703886,0.13493619063382004,0.06694034030970321,0.24277147864630658,0.4896578459673192,0.3459768264868075,0.15977910511041654
355,1456704107971498,0.25480865754202375,0.2546429962596425,0.1373064205689223,0.06453487595343119,0.2338313735533706,0.4876964935256007,0.34623055958833165,0.161635689350969
356,1456704107978497,0.24665113156496352,0.2470874169655887,0.14050744173204585,0.06275633613359605,0.22565201662130094,0.4845511779578649,0.3461310452879653,0.16316398915144978
357,1456704107978497,0.23797116437165786,0.24087600928727246,0.144543838349334,0.061608657488848605,0.21831638480005938,0.48023520343448217,0.34565097124783084,0.16432152071166403
358,1456704107993507,0.2289712782490377,0.23610239327160165,0.14940376415808174,0.06108512257948547,0.2118884965246066,0.4747829593377565,0.34477556342200705,0.16507758027536665
359,1456704107993507,0.21985688411078824,0.23283140914495304,0.1550578355817976,0.061168858936836275,0.20641332567177012,0.46824927106691916,0.3435025238470562,0.16541399114560765
360,1456704108001686,0.2108300854041295,0.23109757832990147,0.16145853766351273,0.061833477779249406,0.20191715861247778,0.46070791996569804,0.3418411967773277,0.16532542716289922
361,1456704108001686,0.2020841003523567,0.23090420520402888,0.16854019566861758,0.06304383774449601,0.19840835893165154,0.45224947484293443,0.3398111169365675,0.16481929541724769
362,1456704108016688,0.19379840902223855,0.2322231192881764,0.17621955118142626,0.06475692327655083,0.19587850251316533,0.4429786748601984,0.3374401512608186,0.16391519052336218
363,1456704108016688,0.18613469807051672,0.23499504922570252,0.18439696848544088,0.0669228324157159,0.19430385469709813,0.4330116489249043,0.3347624664550634,0.16264396209896345
364,1456704108024693,0.17923364140715395,0.23913061899697818,0.19295828106022883,0.06948587072621662,0.1936471620528507,0.42247324693555405,0.3318165379226639,0.1610464638005031
365,1456704108024693,0.17321252014746824,0.24451196477500436,0.20177726360307155,0.07238574530303596,0.19385971860947615,0.41149470165574636,0.32864336431573676,0.15917206598413805
366,1456704108030510,0.16816365551956927,0.25099497554299105,0.2107186797409881,0.07555884636945337,0.194883650075641,0.40021174497956086,0.32528497885067387,0.15707701097327692
367,1456704108030510,0.16415360941426738,0.25841214847215993,0.21964181296714338,0.07893959608082299,0.19665434632270284,0.38876318751789546,0.3217832694083004,0.1548226792401163
368,1456704108038757,0.16122309985875433,0.26657602460824753,0.22840434402373544,0.08246183712382905,0.19910295674740497,0.37728986681666304,0.3181790498402539,0.15247382564637052
369,1456704108038757,0.15938757580057805,0.2752831478732169,0.23686639679885618,0.08606022966956926,0.20215884236069337,0.36593380735315545,0.3145112847587951,0.15009683712325758
370,1456704108053512,0.1586383874195567,0.28431847860309944,0.24489454237283664,0.08967162457518149,0.20575186561741882,0.354837423520161,0.31081637603793116,0.14775805398775235
371,1456704108053512,0.15894447273560597,0.2934601843958974,0.25236553524174715,0.09323638111534178,0.20981440980199206,0.34414261313379757,0.3071274640395703,0.14552218768866723
372,1456704108069795,0.16025446712258837,0.30248471759001494,0.25916956522155843,0.09669959594787969,0.21428305059297265,0.333989607762263,0.3034737509342606,0.1434508598807923
373,1456704108069795,0.1624991383074325,0.31117207260706903,0.2652128490579849,0.10001220635334981,0.21909983201926764,0.32451547212311826,0.29987989820160893,0.14160127938546382
374,1456704108075536,0.16559405241704944,0.31931110275326063,0.27041945978929016,0.10313192837424717,0.22421311201864946,0.31585219618980137,0.29636558769936094,0.14002506192556757
375,1456704108075536,0.1694423760325604,0.32670476092098444,0.2747323892887469,0.10602399180972943,0.2295779448413998,0.30812439152883736,0.29294536162588614,0.13876718276541566
376,1456704108084537,0.17393771463787702,0.3331751051845082,0.27811392900034265,0.108661637988901,0.23515597631269244,0.3014466617007994,0.2896288506952386,0.13786503944579243
377,1456704108084537,0.17896689253070144,0.338567884976386,0.2805455017650864,0.11102635208371135,0.24091485424313538,0.2959207583942111,0.28642145285339166,0.13734759921639936
378,1456704108099840,0.18441260234659318,0.34275651840684396,0.28202707800631427,0.11310781245121723,0.24682719589803107,0.29163266813597016,0.28332545491445393,0.13723461885412153
379,1456704108099840,0.19015588616265175,0.345645304323613,0.28257628392381295,0.11490355745935829,0.2528691931555491,0.28864979704762844,0.2803415245596217,0.13753594844108058
380,1456704108099840,0.1960784395258543,0.34717177371414015,0.28222727908947387,0.11641839106410438,0.2590189583307042,0.2870184227956426,0.2774704597671555,0.1382509552325802
381,1456704108099840,0.20206474828150114,0.3473081398552182,0.2810294545785586,0.11766356377945889,0.2652547147502468,0.28676156010728604,0.27471506995484457,0.1393681234175194
382,1456704108112842,0.20800407832347864,0.34606183088188264,0.2790459827924293,0.11865577309701497,0.27155292941055037,0.28787734983126734,0.2720820625375298,0.1408648981500107
383,1456704108112842,0.21379234046442344,0.34347509046837477,0.27635223502098344,0.11941603232479056,0.27788649047187797,0.2903380513396912,0.2695838014067241,0.142707842950517
384,1456704108121842,0.21933384257998614,0.33962364163150377,0.27303406691467436,0.119968463258007,0.28422305437499124,0.29408970518685884,0.2672397921745106,0.14485316443544977
385,1456704108121842,0.22454291804888368,0.33461444302458976,0.2691859527396912,0.12033907342747463,0.29052371006563177,0.29905252824587814,0.26507775729613414,0.14724763061705634
386,1456704108135845,0.22934538614645755,0.32858260905402203,0.2649089354566509,0.12055457993312657,0.29674211190351346,0.3051220899123122,0.2631342097972153,0.14982987812405055
387,1456704108135845,0.23367976164249146,0.321687585400947,0.2603083680988453,0.12064134009083093,0.30282421155137307,0.31217128904910946,0.26145450145021604,0.15253207854633863
388,1456704108143844,0.2374980985182986,0.3141086744168069,0.25549145934774065,0.1206244447033266,0.30870867826605175,0.3200531139610823,0.26009237263334617,0.1552819179035414
389,1456704108143844,0.24076634333038635,0.3060400215175127,0.25056468381423785,0.12052701933222244,0.31432804477878923,0.3286041306145005,0.2591090474708428,0.15800483239748397
390,1456704108158844,0.24346410147532072,0.29768521220484623,0.2456311446721572,0.1203697597601014,0.31961055628549045,0.33764860883645537,0.25857191458578804,0.16062643095269635
391,1456704108158844,0.2455837866796065,0.2892516638682159,0.2407879756474431,0.12017070218571309,0.32448263584905457,0.3470031588241083,0.25855283713818805,0.16307501603904562
392,1456704108159844,0.24712921367399926,0.2809450048672529,0.23612386476369587,0.1199452019709347,0.3288718183966481,0.3564817119378521,0.25912615505946834,0.16528409266506766
393,1456704108159844,0.24811377278254274,0.2729636211925584,0.23171679356507716,0.11970607193238789,0.33270995993149116,0.3659006476594623,0.2603664662124919,0.16719474200846207
394,1456704108173064,0.24855836561735242,0.26549353694180355,0.22763210221057106,0.11946381668283437,0.3359365095741322,0.37508385031054137,0.2623462843341652,0.16875773878694406
395,1456704108173064,0.24848928337631682,0.25870378604831284,0.22392099069125587,0.11922689748757545,0.33850163849141623,0.3838674753298394,0.265133663162007,0.1699353067381661
396,1456704108181592,0.24793619097606207,0.25274242063909913,0.22061954489032268,0.11900197380084074,0.34036903448829514,0.3921042075605848,0.268789853215145,0.17070242480332123
397,1456704108181592,0.24693035274626818,0.24773327696703987,0.21774834360735745,0.11879408847749942,0.34151817694678904,0.39966679962013574,0.2733670266305713,0.17104761396223814
398,1456704108196067,0.24550320026785225,0.24377358352045614,0.2153126658007182,0.11860678422975222,0.3419459102971374,0.4064507023200601,0.2789060725334544,0.17097315426296422
399,1456704108196067,0.2436853014340156,0.2409324523929661,0.21330327641283106,0.11844215235269848,0.3416671627771519,0.4123756620154773,0.2854344449925876,0.1704947061069957
400,1456704108211069,0.24150574522844917,0.23925024761891067,0.21169772481734753,0.11830082204459216,0.3407147241678112,0.41738625992461337,0.29296405387968766,0.16964034200828182
401,1456704108211069,0.2389919125412173,0.2387387788582284,0.21046204575822847,0.11818190348744821,0.33913807849593136,0.42145147859666166,0.301489226057812,0.16844903836969882
402,1456704108219137,0.2361695670431578,0.23938223636183747,0.2095527168460093,0.11808290023888075,0.3370013571909859,0.42456347011157347,0.31098481186700155,0.16696872444734887
403,1456704108219137,0.23306318567005924,0.24113877070316733,0.20891871291016864,0.11799960608593277,0.3343805380110108,0.4267357504941088,0.3214045480395931,0.1652540183401098
404,1456704108220070,0.22969646202552882,0.24394262335093284,0.2085035166694763,0.11792600176654845,0.33136007939432166,0.42800104994374494,0.33267979977954415,0.16336378679673444
405,1456704108220070,0.226092939880025,0.24770672025968377,0.20824699260230772,0.11785417051239223,0.3280292388066243,0.4284090174880855,0.3447187906570729,0.1613586574407308
406,1456704108233105,0.2222767401141366,0.2523256438042269,0.20808708780892318,0.11777425560815889,0.3244783545513567,0.42802392835171893,0.3574064011611704,0.1592986044702936
407,1456704108233105,0.2182733286564548,0.25767889968941265,0.2079613738534672,0.11767448420558994,0.3207953651413739,0.42692248401909255,0.3706045948684104,0.15724072417872856
408,1456704108241070,0.21411025515987733,0.26363439994069326,0.20780848040061012,0.11754127973451056,0.31706280338050535,0.4251917359324677,0.3841535279743537,0.15523730677622774
409,1456704108241070,0.2098177860964035,0.2700520940558504,0.20756948932245722,0.11735948291114826,0.3133554404691662,0.42292712240655456,0.3978734086092541,0.1533342917567044
410,1456704108256114,0.20542935614324306,0.2767876907777823,0.20718935230211133,0.11711269767412455,0.3097386777325378,0.4202306044763665,0.4115671796785451,0.1515701684786382
411,1456704108256114,0.20098176085443606,0.28369640802914425,0.2066183714113056,0.11678376987002927,0.3062677014676223,0.41720890854121134,0.42502408654868273,0.14997535616027832
412,1456704108264107,0.1965150185563122,0.2906366655273563,0.20581375165851581,0.11635539344741837,0.3029873409828852,0.4139718928806542,0.43802415083820123,0.14857207102535908
413,1456704108264107,0.19207185360320037,0.2974736085948957,0.20474120115151914,0.11581082673802491,0.2999325143279151,0.4106310328789505,0.4503435055996853,0.1473746650308419
414,1456704108279581,0.18769679811386214,0.3040823364057848,0.2033765177132926,0.11513469381601796,0.29712912399797753,0.40729798642381887,0.4617604669853358,0.14639040057257238
415,1456704108279581,0.18343496186298747,0.31035070524356406,0.201707065434949,0.11431383947534463,0.29459527423737397,0.404083181680116,0.47206214043971967,0.14562060500013263
416,1456704108280081,0.17933056609207843,0.31618159102907667,0.19973302067726606,0.11333819496934136,0.2923426969574226,0.4010943699413125,0.4810512972722561,0.14506212251267087
417,1456704108280081,0.17542536894915736,0.3214945357238937,0.19746826082157598,0.11220159576319311,0.2903782656752322,0.39843510057774767,0.4885532100730012,0.1447089478254543
418,1456704108293120,0.1717571216928463,0.3262267660882468,0.19494078192070532,0.11090248128897703,0.2887054440948051,0.396203092872294,0.4944220989844516,0.14455389215698392
419,1456704108293120,0.1683581815406661,0.3303336336868727,0.19219256484954925,0.10944441102420405,0.28732548988288265,0.39448848790041224,0.49854682046026044,0.14459011171297576
420,1456704108301088,0.1652543756875002,0.3337885540729269,0.18927886141094877,0.10783635466604592,0.2862382549741083,0.3933719602381058,0.5008554445231234,0.14481233808864577
421,1456704108301088,0.16246417708722294,0.3365825199115479,0.1862669270660315,0.10609274814994793,0.2854425015860833,0.3929226751797906,0.5013184361820061,0.14521769400434573
422,1456704108316089,0.15999822677104866,0.33872325022327404,0.18323426616751579,0.10423333638972947,0.28493575605667243,0.3931961198552824,0.49995027724139485,0.14580604146449616
423,1456704108316089,0.1578592189830794,0.3402340329460391,0.18026647267693613,0.1022828380816797,0.28471380707655436,0.3942319091369904,0.4968094967589731,0.14657986613424617
424,1456704108324120,0.15604214923732515,0.3411523146965944,0.17745475034362215,0.10027046943170152,0.2847700022599475,0.3960517236197825,0.49199718104543455,0.14754373590650136
425,1456704108324120,0.15453490945818518,0.3415280748434413,0.17489318757961375,0.09822935935697673,0.28509451235892214,0.3986575453111688,0.48565410149582067,0.1487033903663073
426,1456704108347118,0.15331919913117045,0.3414219893533253,0.17267585051864626,0.09619588337539291,0.28567372144607256,0.40203033105910685,0.4779566465834778,0.15006453603923006
427,1456704108347118,0.15237170856678275,0.3409033608851218,0.17089375361827566,0.09420893880141566,0.28648986644363267,0.40612923434512616,0.46911177907199764,0.1516314442894277
428,1456704108348090,0.15166552222144686,0.34004778524086426,0.16963177777947352,0.09230918070648722,0.28752100131962494,0.4108914694763929,0.4593512546853254,0.1534054697916323
429,1456704108348090,0.1511716856926993,0.3389345426816297,0.1689656276942809,0.09053823556178403,0.2887413176166055,0.4162329112819615,0.44892532778458427,0.1553836215727738
430,1456704108353338,0.15086087354181837,0.3376437354230308,0.1689589438390199,0.08893790538530157,0.29012182305315387,0.4220495240221095,0.438096134965768,0.15755731905339523
431,1456704108353338,0.1507050820336527,0.33625324138947377,0.1696607022658482,0.08754936861478141,0.2916313586591273,0.42821968724847864,0.42713090717835445,0.15991144833613136
432,1456704108361297,0.15067925703026733,0.33483562695539626,0.1711030395640816,0.08641237668838757,0.29323791056566334,0.4346074199995026,0.4162951421885273,0.1624238031769271
433,1456704108361297,0.150762764814581,0.33345523890016987,0.17329962620004788,0.08556444067442802,0.2949101378638155,0.4410664140336914,0.4058458828696129,0.16506495880226785
434,1456704108375492,0.15094062679423273,0.3321657354948613,0.1762446828787281,0.0850400020981012,0.29661899688956267,0.44744469965892314,0.39602527874648025,0.16779858997570252
435,1456704108375492,0.1512044589982682,0.33100829472873877,0.1799127011969097,0.08486958539337103,0.2983393106553146,0.4535897038904732,0.387054637728243,0.1705822098777826
436,1456704108384507,0.151553072937513,0.3300106661263538,0.18425889839813317,0.0850789342189242,0.3000511278124121,0.4593534271361204,0.3791291895462223,0.17336827695460244
437,1456704108384507,0.1519927042186722,0.32918713800222765,0.18922040855954544,0.0856881407024502,0.30174074307199983,0.4645974600470866,0.3724137746394537,0.17610559582022708
438,1456704108399242,0.15253684712985627,0.32853939804453725,0.19471818751447167,0.08671078792638844,0.30340129677245875,0.4691975865218887,0.3670396360000307,0.17874092672695338
439,1456704108399242,0.15320569574580542,0.328058192636155,0.2006595807946626,0.08815314087731368,0.305032916233276,0.47304777284705474,0.3631024276860249,0.18122071843403664
440,1456704108400252,0.15402522504742097,0.3277256538043105,0.2069414667959864,0.09001343359751195,0.3066423976938887,0.47606341485998954,0.3606614750664808,0.1834928921182839
441,1456704108400252,0.1550259774726631,0.32751815502704484,0.21345384135664225,0.09228130439741694,0.3082424596093645,0.4781837811678131,0.3597402469835122,0.18550862025734746
442,1456704108412998,0.15624163625183132,0.32740954795331245,0.22008366379408584,0.09493742653230428,0.3098506285979412,0.47937363401968114,0.360327940881798,0.18722405003049283
443,1456704108412998,0.1577074626366163,0.32737459480118447,0.2267187485915347,0.09795337266280014,0.3114878384579812,0.47962402914853364,0.36238203843498507,0.1886019118420148
444,1456704108421285,0.15945865763315453,0.327392347655673,0.23325146388836135,0.10129174055960263,0.3131768195672979,0.47895230027048546,0.3658316540508359,0.18961293978116242
445,1456704108421285,0.1615286890306798,0.3274491637970117,0.23958198754026197,0.10490655610877295,0.31494034113362207,0.4774012385468772,0.3705814632377448,0.1902370227400848
446,1456704108436366,0.1639476067708709,0.32754102386715583,0.24562088798417597,0.10874395946578834,0.3167993696136917,0.4750374998691518,0.37651595823570194,0.1904640067011277
447,1456704108436366,0.16674036067234257,0.32767486709227533,0.25129086418460844,0.11274317233730267,0.3187712315474068,0.47194931536836976,0.3835037483737944,0.19029408361944347
448,1456704108444017,0.16992514183875101,0.3278687750696022,0.25652759546292225,0.11683773768818864,0.32086789157501167,0.468243621275676,0.39140163201293227,0.18973773441477995
449,1456704108444017,0.17351179171270292,0.32815099131442277,0.26127977692059523,0.12095701577579757,0.32309445097842,0.46404273782360483,0.40005822545150177,0.18881523999293157
450,1456704108459302,0.17750034627765296,0.32855791377668553,0.2655085000240402,0.12502791197027868,0.325447950782382,0.4594807105577259,0.40931701421003747,0.1875558207067879
451,1456704108459302,0.18187979263223097,0.32913130135705937,0.269186161662584,0.12897680365828557,0.32791655760800265,0.4546994029971682,0.4190187723986219,0.18599649315793956
452,1456704108460001,0.1866271123984378,0.32991497350352333,0.2722950645054014,0.13273162596748275,0.3304792249905502,0.44984441995555813,0.4290033899499294,0.18418073618749728
453,1456704108460001,0.19170668317548423,0.3309512726572496,0.2748258361605484,0.13622406663907216,0.33310592883303375,0.4450609475393968,0.4391112554679047,0.18215704432936802
454,1456704108473306,0.19707010963314753,0.33227754112545616,0.2767757667833855,0.1393918080326751,0.33575854820874207,0.44048960512368746,0.4491844166135102,0.1799774315388614
455,1456704108473306,0.20265655193444138,0.33392285230152347,0.27814715113331845,0.14218074339524162,0.33839240817069555,0.43626241099882435,0.45906773614136726,0.17769593659970143
456,1456704108489771,0.2083936014213626,0.33590521436205373,0.2789457160189208,0.14454708966072005,0.34095844115210505,0.4324989726951593,0.4686101919861457,0.17536717135289673
457,1456704108489771,0.21419871937330545,0.3382294166004344,0.27917920977777516,0.1464593175941459,0.34340586888700453,0.42930302422609834,0.477666384099874,0.1730449418003399
458,1456704108495777,0.21998121085152014,0.34088562030105823,0.2788562231468996,0.14789981643622865,0.3456852576042773,0.42675943258901444,0.4860982509473013,0.17078096342454438
459,1456704108495777,0.2256446629593123,0.34384872476496997,0.277985298931036,0.14886620332803083,0.3477517562304479,0.4249317763804657,0.49377697270065085,0.16862368963110477
460,1456704108504109,0.23108974116613137,0.34707848096387633,0.2765743710369113,0.14937218029171828,0.3495682913635217,0.4238605693415453,0.500585021680215,0.166617275592146
461,1456704108504109,0.23621721016347214,0.3505202937467184,0.27463055528253993,0.1494478379533309,0.3511084664901274,0.4235621761749196,0.506418285378507,0.16480070428006305
462,1456704108519114,0.24093103390414153,0.3541066496878711,0.2721602977968033,0.1491393166765711,0.3523589147377314,0.4240284496885189,0.5111881336772834,0.16320710169143554
463,1456704108519114,0.24514142267039193,0.3577591105192657,0.2691698675065491,0.14850777485598463,0.3533209081643149,0.42522710041047945,0.5148232592532286,0.16186326094269765
464,1456704108519778,0.24876772730337984,0.3613907980492332,0.2656661513740295,0.14762767546677483,0.354011119759169,0.42710279204692236,0.5172711208749002,0.16078938077892632
465,1456704108519778,0.2517411070801225,0.3649092692076032,0.2616576780654137,0.1465844609581367,0.3544615196573898,0.42957894404516755,0.5184988667675507,0.15999900753552285
466,1456704108533780,0.2540068985469628,0.36821966084370433,0.2571557678602037,0.14547172621618895,0.35471844445461775,0.4325602126327416,0.5184936800535891,0.15949915690586922
467,1456704108533780,0.25552659415309376,0.3712279785870412,0.25217568937277757,0.14438802533843806,0.35484093541176204,0.43593560002259957,0.5172625445064262,0.159290588627711
468,1456704108540786,0.2562793264487075,0.3738443996013876,0.24673769573324006,0.14343347095941045,0.35489851390037847,0.43958209968332823,0.5148314807487588,0.15936821452463923
469,1456704108540786,0.25626276935440573,0.37598645018920257,0.2408678168384244,0.14270630208694784,0.3549686219288069,0.4433687360125383,0.5112443593755873,0.1597216309920752
470,1456704108555782,0.25549341831464195,0.3775819158862871,0.23459831089133987,0.1422995976575813,0.3551339705284116,0.4471608273919782,0.5065614416152068,0.16033577035775137
471,1456704108555782,0.25400627681434806,0.37857135223583177,0.22796773243580812,0.14229829528322363,0.35548001005985913,0.45082430606478147,0.500857807989925,0.16119165802141833
472,1456704108563783,0.2518540280472062,0.3789100864567554,0.22102064084516868,0.14277664539550688,0.35609267980032916,0.45422994393724575,0.494221818861302,0.16226725025614716
473,1456704108563783,0.24910579445172024,0.37856963108236763,0.2138070274482823,0.1437961999882817,0.35705652262048293,0.45725732907882016,0.4867537367935907,0.16353832155770553
474,1456704108579574,0.24584559304770412,0.37753847287685294,0.20638156374260297,0.1454044065167809,0.3584531843754223,0.45979841803345056,0.47856463786760584,0.16497937611201743
475,1456704108579574,0.24217059023401946,0.375822247978919,0.19880276563191743,0.14763384982323396,0.36036028422864874,0.46176049130726426,0.4697757213669481,0.16656456878717663
476,1456704108580575,0.23818924393263097,0.37344334904857657,0.19113213981499338,0.15050215596968738,0.3628506500982542,0.4630683921786909,0.4605180669637871,0.16826862377896698
477,1456704108580575,0.2340193900178949,0.3704400237099974,0.18343334349860888,0.15401254031980444,0.3659919350887913,0.4636660214237573,0.45093278841983625,0.1700677291689851
478,1456704108593870,0.22978628761960296,0.3668650278863939,0.17577135958737947,0.15815494796728533,0.3698466265528954,0.4635171454211663,0.4411714205840076,0.17194037102409135
479,1456704108593870,0.22562059467630183,0.36278390414192907,0.16821167253284086,0.16290769984195702,0.37447241905196527,0.4626056081960986,0.43139628545584074,0.173868060110946
480,1456704108601870,0.22165621291831172,0.3582729575536954,0.16081942779595876,0.1682395260222411,0.3799228674443275,0.4609350199951761,0.4217805424233688,0.17583590198921378
481,1456704108601870,0.2180279266297132,0.35341699246639957,0.15365857100213892,0.17411184029096605,0.3862481872716439,0.45852796719143946,0.4125076481117539,0.17783296915720936
482,1456704108616871,0.21486876401063693,0.3483068659193092,0.14679098605977067,0.18048108693241485,0.39349603432815555,0.45542478665122293,0.40377001120235223,0.17985244962892208
483,1456704108616871,0.21230703736079784,0.3430369273057842,0.1402756718427132,0.18730097705947624,0.4017120819101566,0.45168196899759183,0.3957666927277973,0.18189156121914016
484,1456704108624871,0.21046306765253636,0.33770244372335606,0.13416800172324944,0.19452443927567165,0.41094022847772493,0.4473702710292864,0.3887000653289957,0.18395122939458236
485,1456704108624871,0.2094456576651184,0.33239712863845117,0.12851909669769476,0.20210514828152673,0.4212222996905981,0.4425726139929578,0.3827714316046809,0.1860355349972476
486,1456704108638914,0.20934843389640687,0.32721087935845566,0.12337531960250854,0.20999855815071913,0.43259713905314867,0.43738183306476663,0.3781757285239878,0.18815095530440587
487,1456704108638914,0.21024622889241057,0.32222779231467114,0.11877787687946388,0.21816243010875686,0.44509900842202366,0.4318983346420998,0.37509558188523695,0.19030544384791317
488,1456704108639873,0.21219171605774204,0.31752448256838617,0.1147625027352403,0.2265568895150695,0.4587552609818393,0.4262277076861868,0.3736950664083463,0.19250740873541064
489,1456704108639873,0.2152125223689105,0.3131687009688995,0.11135919842940219,0.23514407734880682,0.4735833223370788,0.42047832083829195,0.3741135445729593,0.1947646531101841
490,1456704108652874,0.21930902357945523,0.3092182284738805,0.10859200295157716,0.24388748973735208,0.4895871157766968,0.4147589265006117,0.3764599142518137,0.19708334286934814
491,1456704108652874,0.22445298300205319,0.30572003363517125,0.10647877776961649,0.2527511268011882,0.506753170460195,0.40917629561023755,0.3808075199074942,0.19946706806381884
492,1456704108660874,0.2305871453363031,0.3027096926669894,0.10503099733871545,0.261698592454788,0.525046727207399,0.4038329207349621,0.38718989846173196,0.20191605798687504
493,1456704108660874,0.23762584965323655,0.300211071066764,0.10425354701600249,0.2706922913317807,0.5444081847228814,0.3988248386431942,0.39559746260999135,0.20442659258609294
494,1456704108676402,0.24545668302509122,0.2982362513060796,0.10414453742469011,0.27969285135174093,0.5647502068647285,0.394239631184154,0.4059751927582106,0.2069906310112185
495,1456704108676402,0.25394316111999155,0.29678568984053816,0.10469514986456953,0.28865886036192445,0.5859557611114793,0.39015467352214317,0.4182214117344181,0.20959565778451764
496,1456704108684395,0.26292839356291325,0.2958486162709243,0.10588953607129088,0.29754694920054325,0.6078773058290498,0.38663571551392306,0.43218772162739444,0.21222472942469053
497,1456704108684395,0.2722396603266475,0.29540372571643003,0.10770480717835301,0.30631219231139756,0.6303372916359584,0.3837358912126241,0.44768015851094967,0.21485669112909736
498,1456704108699171,0.28169378014107005,0.2954202225663038,0.11011115296504924,0.31490874541055447,0.6531300756184952,0.3814952367934488,0.4644615711267424,0.21746652570553154
499,1456704108699171,0.29110309315218985,0.29585923570577316,0.11307212724844587,0.32329061001201337,0.6760252576210647,0.3799407589533321,0.48225518011538787,0.22002579290845384
500,1456704108700198,0.3002818191550102,0.29667556315730725,0.11654512132552293,0.3314124062160952,0.6987723389878484,0.3790870454268689,0.5007492404364056,0.222503113933904
501,1456704108700198,0.3090525065709849,0.29781964816179785,0.12048203209685789,0.33923003985055017,0.7211064968094785,0.378937356417753,0.5196027059647096,0.22486465365576105
502,1456704108712912,0.31725227471658435,0.2992396540837318,0.12483011956974749,0.3467011690451519,0.7427551946072098,0.3794850883780441,0.5384517776344743,0.22707455791075457
503,1456704108712912,0.32473857972398734,0.3008834919229977,0.12953303912092493,0.35378541431648675,0.7634453246815103,0.3807154674686217,0.5569172104192218,0.22909532381274106
504,1456704108721912,0.3313942804584649,0.3027006586737673,0.1345320242510948,0.3604443039625534,0.7829105671376765,0.38260731404346193,0.5746122555569672,0.23088811734117262
505,1456704108721912,0.3371318080706194,0.3046437634735203,0.1397671850343685,0.3666409775218623,0.8008986201815655,0.3851347247903015,0.5911511044241645,0.23241308742558675
506,1456704108736279,0.3418962436569743,0.30666964470929026,0.14517887849419148,0.372339672648508,0.8171779103342633,0.3882685475582334,0.6061576731199262,0.23362974364812444
507,1456704108736279,0.3456671180018014,0.3087400146875723,0.15070910148139557,0.37750501565193023,0.8315433807646009,0.39197756571100495,0.6192745347916108,0.2344974675122637
508,1456704108743955,0.34845880027786363,0.3108216162831736,0.15630285278640604,0.38210116089839463,0.8438210445507299,0.3962293405013554,0.6301717768808429,0.2349762229639072
509,1456704108743955,0.3503194275320304,0.3128859338795909,0.16190940542745788,0.3860908898713996,0.8538711837751877,0.4009906693955033,0.6385555309434848,0.23502751656682203
510,1456704108757921,0.3513284014614294,0.3149085476104072,0.16748341885493628,0.3894348466289351,0.8615902856029382,0.4062276284051779,0.6441759059654862,0.23461562227966531
511,1456704108757921,0.35159252677295777,0.31686823796685004,0.17298580661888407,0.39209110195147706,0.8669119227577777,0.4119052116352427,0.6468340719303651,0.23370903481671773
512,1456704108765914,0.35124091516388545,0.31874593951587005,0.17838427230980572,0.3940151966891567,0.8698067856945666,0.41798665767277154,0.6463882821885855,0.2322820688108269
513,1456704108765914,0.3504188608163408,0.32052362479231444,0.1836534533791269,0.395160746635447,0.87028202143647,0.42443261497397217,0.6427586565182665,0.23031649460894196
514,1456704108772917,0.34928099320850586,0.3221831877717765,0.18877466837823006,0.3954806227882887,0.8683799911088733,0.431200312838296,0.6359305471011907,0.22780309372013102
515,1456704108772917,0.3479840868646979,0.3237053892046179,0.1937353238955481,0.39492865545798445,0.8641765251090501,0.43824287904620407,0.6259562957034328,0.22474301555116105
516,1456704108781697,0.346679928558162,0.32506891082751793,0.19852807673269152,0.39346174246540244,0.8577786900236497,0.4455089059113773,0.612955216718345,0.22114881889536192
517,1456704108781697,0.3455086186253156,0.3262495433240195,0.20314985662859525,0.39104217697905347,0.8493219711221871,0.45294233067368905,0.5971117394420221,0.217045096564379
518,1456704108796150,0.3445926365116424,0.32721952390464054,0.20760084397296594,0.38763997564492403,0.838966684305409,0.4604826693445971,0.5786717706552726,0.21246861684509016
519,1456704108796150,0.3440319430159696,0.3279470537912494,0.21188347830775836,0.3832350054239083,0.826893461289018,0.4680656166219225,0.557937415772152,0.20746796461967923
520,1456704108804371,0.343900322884443,0.32839604870582045,0.21600155427207837,0.3778187655132814,0.8132978216019935,0.47562398398137556,0.5352602049220618,0.20210271395959908
521,1456704108804371,0.3442430947784634,0.32852619023136553,0.2199594427315883,0.37139574206676235,0.7983840650095771,0.4830888998707555,0.511032970593407,0.19644220128759607
522,1456704108819372,0.3450762416505373,0.3282933535913674,0.2237614540499807,0.36398429740090843,0.782358882033788,0.49039116711211844,0.48568057247929636,0.19056398911209704
523,1456704108819372,0.34638694910885115,0.3276504887124449,0.2274113374797176,0.3556170827382608,0.765425141561277,0.4974626761695931,0.4596497488705391,0.18455211699034002
524,1456704108820380,0.34813547875329454,0.3265490130109273,0.2309118920596566,0.3463409748508196,0.7477762769107851,0.5042377917917895,0.43339843832488006,0.17849523187089128
525,1456704108820380,0.350258241314723,0.3249407264061638,0.23426465999320348,0.3362165370577166,0.7295915869954945,0.5106546405145446,0.40738493229806666,0.17248467325996425
526,1456704108833379,0.35267186901259134,0.3227801906730184,0.23746968229810075,0.32531701322083545,0.7110326425729837,0.5166562218158338,0.3820571989901488,0.16661256048631518
527,1456704108833379,0.35527802523320373,0.320027445838789,0.24052530589062293,0.31372688964946494,0.6922408704621189,0.522191259355978,0.3578426768917266,0.16096989947662202
528,1456704108841160,0.3579686470481372,0.3166508838732996,0.243428032861089,0.30154008693637996,0.6733362883093048,0.5272147163600668,0.3351387826466839,0.15564470873994715
529,1456704108841160,0.3606313033975279,0.3126300754885351,0.24617239961003057,0.28885785558412075,0.6544172807471252,0.5316879254808635,0.3143043256930823,0.1507201661236247
530,1456704108856442,0.3631543685133199,0.307958349245681,0.2487508739174924,0.2757864564295397,0.6355612533616462,0.5355783208352506,0.2956519874634648,0.1462727957639881
531,1456704108856442,0.3654317474818607,0.3026449429144159,0.25115376868159583,0.26243472431555837,0.6168259847685224,0.5388587985984666,0.2794420069378502,0.14237073680431114
532,1456704108864156,0.3673669399059397,0.29671657352890085,0.25336919064770064,0.24891163449867762,0.5982515225597078,0.5415067705820532,0.26587720164812917,0.13907215013711133
533,1456704108864156,0.36887628585235516,0.29021830159131223,0.2553830593555795,0.23532399978373758,0.5798625153093828,0.5435030112576219,0.2550994284688271,0.13642382218517474
534,1456704108878947,0.3698913038510638,0.2832136028089784,0.25717923299889905,0.22177441681529164,0.5616708951494155,0.5448304185929573,0.24718754887854316,0.1344600177182267
535,1456704108878947,0.37036009042443685,0.27578361273954977,0.25873975987910564,0.20835955647066848,0.543678797731756,0.5454727999594781,0.24215691245628088,0.13320162072945294
536,1456704108886448,0.37024778933279395,0.26802556811151623,0.26004524411602287,0.19516886244471093,0.52588155921974,0.5454137684346668,0.23996031300110637,0.13265558711219982
537,1456704108886448,0.36953616317088794,0.2600505191671177,0.2610752876929734,0.18228369101250508,0.5082706153632726,0.5446358138684414,0.24049031264265927,0.13281471796558283
538,1456704108895243,0.3682223326390591,0.2519804246756691,0.2618089616110821,0.16977689926678252,0.4908361588483674,0.543119599103929,0.2435827884259958,0.13365774841493247
539,1456704108895243,0.366316796568339,0.2439447684269731,0.26222527078133884,0.15771287020690794,0.47356946188347965,0.5408435172462603,0.24902154561757137,0.1351497339403391
540,1456704108901548,0.363840890822985,0.23607685232025172,0.26230360421564064,0.14614794853414179,0.45646482048181836,0.5377835364943959,0.2565438556889241,0.13724270631399604
541,1456704108901548,0.3608238691421998,0.228509921716698,0.2620241938577517,0.1351312475133288,0.43952112564243223,0.5339133616459022,0.26584679474679174,0.13987656744349916
542,1456704108916548,0.35729979922026883,0.22137326760719353,0.2613686321705217,0.12470577206286396,0.42274311719113433,0.5292049455621305,0.27659426749919974,0.1429801924352184
543,1456704108916548,0.35330447813113847,0.21478844131076447,0.2603205100113705,0.11490978534213538,0.40614242019106683,0.5236293757911726,0.2884246065700814,0.14647272016355162
544,1456704108924548,0.34887258029573187,0.2088657163122371,0.2588662225157092,0.10577832755630656,0.3897384851273643,0.5171581423291003,0.30095864524496146,0.15026501793354868
545,1456704108924548,0.34403524314523504,0.2037009276467062,0.25699595087212945,0.09734478092036167,0.37355953489352817,0.5097647711336034,0.3138081728820781,0.15426131602375603
546,1456704108938248,0.33881826648726765,0.19937280190377302,0.25470477480856074,0.08964236747823072,0.3576435633904238,0.5014267908472079,0.3265846879098929,0.15836101615451045
547,1456704108938248,0.33324105815771987,0.19594086371583436,0.2519938246794848,0.08270546780758935,0.342039355800902,0.4921279907437639,0.33890835268939934,0.16246068100872238
548,1456704108946247,0.32731640318392824,0.19344397475464728,0.2488713619757019,0.07657065797951536,0.3268074389852752,0.481860922845349,0.35041701836205563,0.16645620689513824
549,1456704108946247,0.3210510675257305,0.19189953105183125,0.24535368903073113,0.07127737882408001,0.312020838482373,0.47062958842705455,0.36077512912355153,0.17024516914791507
550,1456704108953247,0.3144471789083054,0.19130331678601573,0.24146581902143605,0.06686817459821384,0.29776551972183724,0.45845221845658773,0.36968225744986527,0.1737293132839295
551,1456704108953247,0.3075042678143529,0.191629995899191,0.23724186263086836,0.06338846554097523,0.28414041754115865,0.44536401182589674,0.37688099444483947,0.1768171465404528
552,1456704108961247,0.30022181099311823,0.19283422148298796,0.23272509550424586,0.06088584736958929,0.27125699072315784,0.43141965157344525,0.3821639310713861,0.17942656273735932
553,1456704108961247,0.29260210171272666,0.1948523461112196,0.22796766894655987,0.059408936905257254,0.25923825876656903,0.41669539770648334,0.3853794943101548,0.1814874073686814
554,1456704108976257,0.2846532656743442,0.1976047061059175,0.22302993385665504,0.059005804212153394,0.24821728478994506,0.4012905640811143,0.3864364170498935,0.18294386288431477
555,1456704108976257,0.2763922316411234,0.20099842418916153,0.2179793739294087,0.05972204782798053,0.23833507596217898,0.38532822179893866,0.38530661746329103,0.18375651249612043
556,1456704108984484,0.267847447630757,0.20493064126725705,0.21288917875665073,0.06159858304144681,0.2297378986811462,0.3689550272948167,0.38202627470918954,0.18390393222142007
557,1456704108984484,0.2590611203709508,0.20929206476223264,0.20783651327830238,0.06466922600763711,0.22257405465888125,0.3523401459548865,0.37669494987897645,0.18338367398292832
558,1456704108998684,0.25009075835163513,0.21397071187054018,0.20290055013444164,0.068958168652318,0.21699022066303164,0.3356733221949464,0.36947271364531925,0.18221253907841775
559,1456704108998684,0.24100981889635578,0.21885572386644403,0.19816033323986834,0.07447744839438088,0.21312749385166585,0.31916221694811364,0.360575366381603,0.18042608810152086
560,1456704109006688,0.2319073074759439,0.22384112215406113,0.19369254478880032,0.08122452113533658,0.21111729394748358,0.30302917351493486,0.35026793479977986,0.17807737521618613
561,1456704109006688,0.22288627173455608,0.22882936672372003,0.18956925472138278,0.08918004681010622,0.21107726332098004,0.28750757058106957,0.33885668997628066,0.17523493531062842
562,1456704109013471,0.21406126588248486,0.2337345743897989,0.185855734650705,0.09830599556077749,0.21310729551828125,0.27283788320824903,0.3266799605263551,0.1719801067517153
563,1456704109013471,0.20555498522999505,0.2384852721588035,0.18260841545874204,0.10854417859739217,0.21728581895971302,0.25926352299910715,0.3140980238914678,0.1684038368185101
564,1456704109021686,0.19749433794959162,0.243026599763178,0.17987306407791565,0.11981529940500228,0.2236664575077476,0.2470264945199178,0.3014823705878489,0.16460316787982576
565,1456704109021686,0.19000622647318097,0.24732191300291154,0.17768325171877075,0.13201860818820424,0.2322751732840586,0.23636289801441657,0.2892046693276441,0.1606776231286205
566,1456704109044473,0.1832132836579004,0.25135375173955876,0.17605917854828876,0.1450322266987687,0.24310796822385966,0.2274983195496434,0.2776258039699263,0.15672570315123358
567,1456704109044473,0.1772297778949774,0.2551241248363436,0.17500690791247178,0.15871419195490963,0.25612918728284095,0.22064316302133916,0.26708537480687505,0.1528416787732223
568,1456704109045687,0.17215787688561754,0.2586540598980248,0.17451805212562618,0.17290424375814037,0.2712704373485496,0.2159879860817819,0.25789203962251434,0.14911283013810125
569,1456704109045687,0.16808443883570479,0.26198239502906323,0.1745699429202133,0.18742635056538193,0.28843011556370185,0.21369890741614767,0.25031502114849896,0.14561724252284772
570,1456704109058473,0.16507847640420129,0.2651638435581781,0.17512630563887863,0.20209193296173428,0.3074735273236932,0.21391316369882232,0.2445770426696133,0.14242222832894738
571,1456704109058473,0.16318940796511472,0.26826640869362034,0.17613843071275864,0.2167037091456077,0.3282335651337397,0.2167349126403618,0.24084888538194485,0.13958340280477288
572,1456704109066686,0.16244617011234733,0.27136825048387136,0.1775468009171802,0.23106005663270454,0.3505119145506919,0.2222313963059024,0.23924569576425458,0.1371444008075807
573,1456704109066686,0.16285721684666288,0.2745541271023841,0.1792830969770192,0.2449597567376192,0.37408075265268653,0.2304295883884363,0.2398251087439405,0.13513718695440521
574,1456704109082199,0.16441138038990907,0.2779115554361921,0.1812724773452317,0.25820695825549916,0.3986849024419705,0.24131344696614485,0.242587192605624,0.13358288298089058
575,1456704109082199,0.16707952226946735,0.28152684993117416,0.18343601542242025,0.270616164477462,0.4240443949513761,0.2548218809062859,0.247476167881561,0.1324930111976806
576,1456704109083817,0.17081686559167078,0.2854811937430754,0.18569317508076968,0.28201702109028365,0.44985737277528903,0.2708475201152453,0.25438380664373017,0.13187102814699675
577,1456704109083817,0.17556587240685176,0.2898468815314294,0.1879642057607975,0.2922586727334178,0.47580326567978626,0.28923636643462747,0.2631543740669227,0.1317139992621274
578,1456704109096491,0.18125951175072952,0.29468386443665134,0.19017234278554157,0.30121347380092117,0.5015462074091487,0.3097883940923543,0.2735909218156825,0.13201425195757757
579,1456704109096491,0.18782474855506393,0.3000367311563442,0.19224571898205942,0.30877988945724527,0.5267387489199693,0.3322591579849313,0.2854626834498579,0.13276085196492288
580,1456704109104760,0.1951860688959205,0.30593226578149896,0.19411893702419436,0.31488449593621415,0.5510260216774329,0.3563624452194395,0.29851326587487614,0.1339407804267245
581,1456704109104760,0.20326884801354325,0.31237771512178325,0.1957343019038852,0.31948306113152997,0.5740505559325896,0.38177396695397636,0.31246928771276977,0.135539741677188
582,1456704109118759,0.21200236927025665,0.3193598647946481,0.19704274161182886,0.3225607374139526,0.5954579330531712,0.40813604381500096,0.32704909274745353,0.1375425907580067
583,1456704109118759,0.22132231523394594,0.3268449707693302,0.19800444282040008,0.32413143075385004,0.6149033661700164,0.43506320966043405,0.34197117173237546,0.13993341919317606
584,1456704109126757,0.23117257576952188,0.33477953520531134,0.19858921567945934,0.32423644114101535,0.6320591898302071,0.4621486561335225,0.35696195976034506,0.14269536569271526
585,1456704109126757,0.24150625065993092,0.34309186084714305,0.1987766008466192,0.32294250386002693,0.6466231160712013,0.4889714512107,0.37176272916763276,0.14581022749454906
586,1456704109142494,0.2522857637164342,0.3516942722853073,0.19855574872948975,0.32033938196228634,0.6583270011896962,0.5151044629299448,0.38613536111244684,0.1492579485931477
587,1456704109142494,0.26348205726212925,0.3604858610681938,0.19792512387663902,0.3165371528548708,0.6669457877416018,0.5401228923173144,0.3998668578247656,0.15301605705007046
588,1456704109143494,0.2750729096364191,0.36935559447743277,0.19689210148177802,0.31166330329391584,0.672306248457933,0.56361327955292,0.4127725593466485,0.15705911226756317
589,1456704109143494,0.2870405052261637,0.37818561737948475,0.19547252203352772,0.3058597108083784,0.6742951458317632,0.5851828127521562,0.42469813760047276,0.16135820756545446
590,1456704109156755,0.29936845859192973,0.3868545720448297,0.19369025490827096,0.2992795502035685,0.672866404810497,0.6044687401684725,0.43552052090960786,0.16588056292447056
591,1456704109156755,0.3120385335812431,0.39524077224161724,0.19157679360423877,0.29208412331024486,0.668046864057069,0.621147647534319,0.4451479337380669,0.17058924132528003
592,1456704109164495,0.3250273092294713,0.4032251042854127,0.18917086938299282,0.2844395787271915,0.65994013889435,0.6349442957038665,0.4535192297987029,0.1754430233787958
593,1456704109164495,0.3383030349636221,0.410693583727349,0.18651803783623172,0.27651348175618606,0.6487281281446667,0.645639625552148,0.4606026662513077,0.18039646937787812
594,1456704109178516,0.3518228895744713,0.4175395517204209,0.18367017552168977,0.26847122315191824,0.6346697632917637,0.6530774670714529,0.466394220719009,0.1854001816306406
595,1456704109178516,0.3655308160115697,0.4236655320354036,0.18068482331993832,0.26047231446505936,0.6180967533609498,0.6571694874609819,0.4709155121238077,0.1904012566942854
596,1456704109186646,0.37935606008040745,0.4289847884620325,0.1776243242863871,0.25266668783021096,0.5994063044960442,0.6578979997290967,0.4742113763451952,0.19534389517472642
597,1456704109186646,0.3932125041474152,0.43342263231670314,0.17455472239952477,0.24519117177630032,0.5790510382186029,0.6553164114350898,0.47634716612984984,0.20017012593908617
598,1456704109201732,0.4069988488011325,0.4369175334066492,0.17154441370749954,0.23816633326326977,0.5575265510461439,0.6495472791395889,0.4774058653804611,0.20482060943361777
599,1456704109201732,0.4205996436866439,0.4394220805919837,0.16866257222555778,0.23169385913080068,0.5353572220472304,0.6407780961949782,0.4774851155574232,0.20923551002204785
600,1456704109202732,0.43388711212188275,0.4409038183687942,0.16597740662203722,0.2258546097883546,0.5130809618573243,0.6292550527586985,0.47669424886065315,0.21335545714563828
601,1456704109202732,0.4467236807875023,0.44134596096724166,0.1635543327113105,0.22070742897956294,0.4912336019867226,0.6152750828743371,0.47515141057697585,0.21712263240236795
602,1456704109216733,0.4589651292764137,0.44074796599009614,0.16145416256640574,0.21628874527426825,0.47033357076366566,0.5991765763615202,0.47298083217369774,0.22048201434663456
603,1456704109216733,0.47046429037827875,0.43912593530847654,0.15973141114702702,0.21261295428006965,0.45086742246598294,0.5813291733797313,0.4703102974053289,0.22338278827470084
604,1456704109224733,0.48107522300117805,0.43651279069590543,0.15843280855634612,0.20967352233427447,0.4332766934759517,0.5621230549318091,0.4672688310437691,0.2257798950814329
605,1456704109224733,0.49065773662649154,0.43295814429024493,0.15759608555919485,0.20744470642673435,0.4179464591590151,0.5419581009771125,0.4639846217662635,0.22763565873766398
606,1456704109238751,0.4990820879632893,0.4285277650917547,0.15724907823639608,0.20588375484350266,0.40519586859846896,0.5212332450302227,0.46058315890948986,0.22892139894242994
607,1456704109238751,0.5062336098158012,0.4233025463888924,0.1574091781680137,0.2049334495942042,0.39527085184296806,0.5003363329073862,0.4571855302161783,0.22961890920994724
608,1456704109246737,0.5120169714938798,0.4173769096524293,0.15808313632060556,0.20452486950545914,0.38833912260927855,0.47963477877234484,0.4539068108437989,0.22972167015287814
609,1456704109246737,0.5163597231923535,0.4108566393685192,0.15926721077744949,0.204580273775971,0.3844875258096697,0.45946727401132154,0.45085447206559087,0.22923567952469218
610,1456704109260743,0.5192147724896892,0.4038562185723341,0.16094763062189255,0.20501601660865698,0.3837216995399349,0.44013673988370444,0.44812674144636017,0.22817981193768355
611,1456704109260743,0.5205615084221404,0.39649579508702426,0.16310132991958382,0.20574540291062043,0.3859679437228987,0.42190465171129804,0.4458108541451339,0.22658566326722632
612,1456704109261739,0.5204054318672335,0.38889793109038695,0.16569688900736598,0.2066813869783673,0.3910771201220181,0.4049868234014517,0.4439811555220149,0.22449688127537906
613,1456704109261739,0.5187763311646318,0.3811842829879945,0.16869561247218312,0.20773900608726537,0.3988303511801546,0.38955071434003663,0.44269705144635924,0.2219680289962152
614,1456704109276560,0.5157252062631926,0.3734723480607735,0.17205267829362342,0.20883743894760093,0.4089462437331541,0.3757142807383274,0.44200084889314684,0.21906305997278072
615,1456704109276560,0.5113202739456159,0.3658724090174986,0.1757183053166976,0.20990159867212405,0.4210893530087481,0.3635463372332698,0.4419155796486052,0.21585349781538096
616,1456704109284787,0.5056424806080656,0.35848480143599887,0.179638900101639,0.21086321690072574,0.4348796233521867,0.35306833707051605,0.4424429495763187,0.21241641127015068
617,1456704109284787,0.4987809905777541,0.35139761377487966,0.18375815868926906,0.2116614384279165,0.4499025718427294,0.34425743090782923,0.44356159416962176,0.20883226480174033
618,1456704109298733,0.4908290927636752,0.3446849039693981,0.18801811335409263,0.21224300415604475,0.46572000199154895,0.3370506292665166,0.4452258357545477,0.20518270462271262
619,1456704109298733,0.48188089204564066,0.3384054869105006,0.19236012519767706,0.21256214118188693,0.48188105217728205,0.33134987240436786,0.44736513095247155,0.2015483204501251
620,1456704109306755,0.472029047987892,0.33260232148704516,0.19672582886961346,0.21258029724309302,0.497933398429483,0.3270277927474035,0.44988438292607497,0.1980064192869873
621,1456704109306755,0.4613637013422588,0.32730250672795497,0.20105803641680423,0.21226585128537107,0.5134344254321456,0.32393392690929623,0.45266527404173984,0.1946288612542531
622,1456704109321745,0.44997259356074165,0.3225178797969131,0.205301602266449,0.21159390609526357,0.5279621424833678,0.32190110827930674,0.4555687374038068,0.1914800260310123
623,1456704109321745,0.4379422494814398,0.31824618962466383,0.2094042417597876,0.21054623172380907,0.5411255680888033,0.32075177459761534,0.45843862220109,0.18861499119051536
624,1456704109321745,0.4253599741005579,0.3144727962320383,0.21331728757605964,0.20911138843533128,0.5525742634550547,0.3203039658189718,0.46110652332828406,0.1860780079415842
625,1456704109321745,0.41231632144898384,0.31117281503616656,0.21699636656160412,0.20728501737514587,0.5620066790617646,0.3203768454764479,0.4633976459294091,0.1839013528735069
626,1456704109336754,0.398907637824729,0.30831358571168704,0.22040198279902498,0.20507024355739412,0.5691769954915586,0.32079563322717874,0.46513746395543787,0.18210461383907559
627,1456704109336754,0.38523828143804667,0.3058572972010133,0.22349999712530505,0.20247809098896583,0.5739001858385016,0.32139588572811817,0.4661588236875396,0.18069443895934947
628,1456704109344750,0.37142218574744346,0.3037635552326717,0.22626199483439075,0.1995277764828721,0.5760551025469028,0.3220271098519203,0.46630906661603644,0.17966475064121326
629,1456704109344750,0.3575835392112361,0.30199166456296317,0.22866553121306815,0.19624674553082672,0.5755855094286367,0.322555726371251,0.4654567213000471,0.17899740880669934
630,1456704109360716,0.3438564556131192,0.3005024432677462,0.23069424336513095,0.1926703502113658,0.572499135898843,0.322867411815855,0.463497337307069,0.17866329731538919
631,1456704109360716,0.33038359115503535,0.29925948214712034,0.2323378218239555,0.18884113410955858,0.5668649742314387,0.3228688368929707,0.4603580961506179,0.17862379650124535
632,1456704109366602,0.3173137468277029,0.29822986274639585,0.2335918465518335,0.18480775410967024,0.5588091086659561,0.32248881245844085,0.45600094101475963,0.1788325871042278
633,1456704109366602,0.30479858967702156,0.2973844167594926,0.23445750414259514,0.1806236091122602,0.5485093440429447,0.3216788631441362,0.4504241178565162,0.17923770923453156
634,1456704109381622,0.2929887164285979,0.2966976459177351,0.2349412123051829,0.1763452586636834,0.5361888351998411,0.32041326845821966,0.4436621685389605,0.1797837815146113
635,1456704109381622,0.28202933888685905,0.29614743169030006,0.2350541822721446,0.17203071442339016,0.522108867508549,0.31868862396175696,0.4357845051429048,0.1804142746499515
636,1456704109382622,0.2720558785455229,0.2957146492010206,0.23481194620244292,0.16773768639380757,0.5065609428506395,0.3165229698255494,0.42689272871943224,0.18107372909688457
637,1456704109382622,0.2631897222678607,0.29538276931764446,0.23423386173733837,0.16352186633265603,0.4898583783389009,0.31395451127078833,0.41711689006492086,0.1817098061706101
638,1456704109395937,0.25553432707233986,0.2951375027354292,0.2333425878421025,0.15943533076532038,0.4723276802441524,0.3110399240076603,0.40661094468682224,0.18227507200927115
639,1456704109395937,0.2491717922410339,0.29496651336633084,0.23216352350412436,0.1555251424147089,0.4542999664156559,0.30785221382724876,0.39554769003029433,0.18272844398159835
640,1456704109403975,0.24415996678683247,0.29485920154668166,0.23072422066291393,0.15183221865626484,0.4361026747406224,0.30447810276258136,0.384113454453693,0.18303627472355932
641,1456704109403975,0.2405301457730617,0.2948065400044205,0.22905380765514158,0.148390518307331,0.4180517509410745,0.3010149569337344,0.37250275050425585,0.1831730893952398
642,1456704109417944,0.23828542029314217,0.2948009543591082,0.22718246692834884,0.145226575942596,0.40044449136092464,0.297567344699555,0.36091305490404524,0.18312200983794233
643,1456704109417944,0.2373997523646016,0.2948362730142634,0.22514099783564984,0.1423593897512187,0.3835532244950569,0.2942433885967596,0.34953985646403474,0.1828748943769054
644,1456704109425944,0.23781782532327572,0.2949078035365172,0.22296047657630244,0.13980064857938362,0.36762001913339815,0.29115111965136264,0.3385721028647403,0.18243220668055277
645,1456704109425944,0.23945567965065023,0.2950126011901913,0.2206720123722361,0.13755526724968503,0.35285257995915764,0.2883950458073345,0.32818815134957435,0.18180261727168834
646,1456704109440945,0.24220210774848577,0.2951499750805517,0.21830659166163108,0.1356221841345569,0.339421428437495,0.2860731155159164,0.3185522836962886,0.18100234554551342
647,1456704109440945,0.2459207629121895,0.29532223450616435,0.21589499635628082,0.1339953596162213,0.32745838246867554,0.28427420671192805,0.3098117946645706,0.18005426520072776
648,1456704109441939,0.2504529314814183,0.2955356237947799,0.2134677751475889,0.13266489990828115,0.31705626457632335,0.28307620935400335,0.30209461844712243,0.17898681222698623
649,1456704109441939,0.25562090983168007,0.29580134250259454,0.21105523540887855,0.13161822094735368,0.30826970513323215,0.2825447029110085,0.2955074375420535,0.17783274599589283
650,1456704109456940,0.2612319136794237,0.2961365109247277,0.2086874074477041,0.13084116619354416,0.30111687697017836,0.2827321678493979,0.29013423565815905,0.1766278215573662
651,1456704109456940,0.26708242703266766,0.2965649221926797,0.20639392181813332,0.13031900306530245,0.2955819992366012,0.2836776234737648,0.2860352956097464,0.17540943567899225
652,1456704109463946,0.2729628760521451,0.29711741948293025,0.20420374617565212,0.13003724019648588,0.291618461177398,0.28540656280612436,0.2832466748506771,0.17421530576118538
653,1456704109463946,0.2786625007196793,0.2978317464200358,0.20214475074078908,0.12998222281564326,0.2891524200998564,0.28793106230066157,0.28178020286358135,0.17308222645427945
654,1456704109478450,0.2839743105698979,0.2987517437032121,0.20024309920022307,0.13014147769633083,0.2880867270704714,0.2912499730636326,0.2816240389458041,0.172044928757941
655,1456704109478450,0.288700049514096,0.2999258175436021,0.19852248656347088,0.13050380205514267,0.2883050447062669,0.2953491328168955,0.2827438046267921,0.17113504829308968
656,1456704109486451,0.2926551335322025,0.3014046903756014,0.19700326563542325,0.13105912166765676,0.2896760373776254,0.30020155878927857,0.2850842601743516,0.17038019709026714
657,1456704109486451,0.2956735356229069,0.3032385410601286,0.19570151725065704,0.13179816664069727,0.2920575128213434,0.3057675936776291,0.2885714402715813,0.16980312962391064
658,1456704109500959,0.2976125668966673,0.30547371965350584,0.1946281244092548,0.13271201570036154,0.2953003717865419,0.31199499321693785,0.29311511820018943,0.16942100243576114
659,1456704109500959,0.29835744963704075,0.3081492701315079,0.19378791143233012,0.13379154445738276,0.29925220279431386,0.3188189700898452,0.29861144406783346,0.1692447432847542
660,1456704109501964,0.2978255111394472,0.31129352081289446,0.19317891339626964,0.13502679458301423,0.3037603708227366,0.3261622395081363,0.30494560732845827,0.16927855650830673
661,1456704109501964,0.29596976521850377,0.3149210065424452,0.19279184783273912,0.13640627448651088,0.3086745011746122,0.3339351398180194,0.3119944052519977,0.16951958656835492
662,1456704109516206,0.29278161383462015,0.31902996208585493,0.19260986105995878,0.13791621487184094,0.31384834126193073,0.3420359214367932,0.31962863978061606,0.16995774638905084
663,1456704109516206,0.28829240491882757,0.3236005801917947,0.19260860834332758,0.1395398285128906,0.31914107306034045,0.35035130506346907,0.32771528934784594,0.17057570274426628
664,1456704109524202,0.2825736220327052,0.3285941762803999,0.19275670023824032,0.14125664766721738,0.32441822544801685,0.3587574045168112,0.3361194019831428,0.17134900543766082
665,1456704109524202,0.2757355616464434,0.3339533464600638,0.19301651220542396,0.14304202180687067,0.3295523787696568,0.3671210933399171,0.3447056575806625,0.17224635429692517
666,1456704109538161,0.26792447940316577,0.3396031391176023,0.19334531928817217,0.1448668504957628,0.33442385621532444,0.3753018714492771,0.3533395838502954,0.17323001850177208
667,1456704109538161,0.25931833166217233,0.34545318623525073,0.1936966893674617,0.14669760815576524,0.33892156593937683,0.3831542631845086,0.3618884783037826,0.17425644725656558
668,1456704109545958,0.250121356865236,0.35140067188532836,0.1940220495395471,0.14849669677873448,0.34294410793647295,0.390530754280963,0.3702221493272508,0.17527712312691796
669,1456704109545958,0.2405578106748521,0.35733395928399203,0.1942723318071198,0.1502231409454328,0.34640120106333866,0.39728525094500206,0.3782136182650481,0.17623970010951362
670,1456704109561157,0.23086519525284446,0.3631366536327438,0.19439960963609668,0.1518336136870555,0.3492154238359699,0.40327701345211747,0.3857399282296841,0.17708944083063505
671,1456704109561157,0.22128731415483358,0.36869184750679546,0.1943586529067361,0.15328375146675766,0.3513242001371111,0.4083749719886289,0.3926831921972781,0.17777093111222506
672,1456704109562236,0.21206744538282088,0.37388628937013746,0.19410834199373247,0.15452968741505016,0.3526819007918946,0.4124622707472527,0.398931975371555,0.1782300163854177
673,1456704109562236,0.2034418689480284,0.3786142454964389,0.1936128846278672,0.15552970875768407,0.3532618786963443,0.41544081988008696,0.4043830395505933,0.17841588090231855
674,1456704109576359,0.19563392833373378,0.382780887473923,0.1928427844978855,0.1562459256421947,0.3530582116541515,0.41723558761506224,0.4089433923579946,0.17828317829964588
675,1456704109576359,0.18884875665509976,0.38630510824503755,0.19177553458113147,0.15664582342598782,0.3520868986312626,0.41779834803804866,0.41253250355151716,0.17779411456418606
676,1456704109584666,0.18326875763377196,0.3891217222308406,0.1903960456667305,0.15670356900742513,0.35038626023237796,0.4171106086045907,0.41508449469843156,0.17692037610016492
