,timestamp,roll,pitch,yaw
0,1456704146116973,0.052419891449507205,0.026141952393167283,0.08353293233015252
1,1456704146138479,0.07286682004452177,0.03243909469609291,0.06532193523398958
2,1456704146162481,0.09034287636847166,0.0380861705961339,0.04908976978847875
3,1456704146177482,0.10212379553245274,0.04250291381984318,0.036705293412602376
4,1456704146198488,0.10617552285832642,0.04520191440102784,0.029664829434847124
5,1456704146222999,0.1017059619882076,0.045875486262219024,0.028731819922443044
6,1456704146268507,0.08966167422454327,0.044501100492544896,0.03367250307253266
7,1456704146277508,0.07284673282276945,0.0414309807666029,0.0433174937529096
8,1456704146285508,0.05539194075133381,0.03740841837834793,0.05598655543617832
9,1456704146300511,0.041589705204900865,0.03345613786637706,0.07005695228131176
10,1456704146321224,0.034484598130355426,0.03062530760206739,0.08434383511638176
11,1456704146342727,0.03480981060628744,0.02966436743593951,0.09808528931653945
12,1456704146387010,0.0407409588799228,0.03073298786305729,0.11059574640424061
13,1456704146387724,0.04858751921681078,0.03331285511034951,0.12088607362782222
14,1456704146402044,0.054150299790146225,0.03641561556382784,0.127584814516656
15,1456704146418016,0.05420606986950535,0.03904532123558679,0.12928744323208402
16,1456704146440527,0.047570574763802435,0.04070091364519376,0.12514180052989823
17,1456704146461534,0.03546157268593636,0.04163063388033114,0.11529444683197217
18,1456704146477544,0.021229121608296552,0.042661990363130724,0.10093607213011456
19,1456704146508538,0.00966907525634522,0.04468003723815322,0.08400912696859764
20,1456704146522353,0.006057689465037713,0.048043068651171784,0.06688747900634776
21,1456704146537556,0.01495139121802743,0.05225242280510171,0.05226375996158115
22,1456704146560559,0.03885936560660297,0.05603440909992324,0.04314749477413751
23,1456704146582559,0.07708471229753261,0.05778945272454917,0.042617993303054415
24,1456704146605561,0.12516758815056594,0.056234458361945336,0.053063640452497285
25,1456704146621598,0.17529905742958804,0.0510134506561849,0.0750398895600264
26,1456704146641864,0.2178020079980832,0.043044689397228275,0.1063050812320124
27,1456704146664867,0.24342778127820824,0.03442683226069682,0.1417168615454871
28,1456704146680865,0.24593771768027664,0.02787894216716865,0.17433984636604113
29,1456704146701875,0.22427775824968113,0.025904464840810913,0.1974920922101834
30,1456704146725402,0.18361129606194865,0.030027428428260058,0.20692669796870497
31,1456704146741165,0.13462436357276622,0.040431499030147484,0.20221592684734313
32,1456704146770094,0.09098719823021978,0.05612266207483307,0.1867371299449404
33,1456704146787124,0.06560385311826177,0.07544636175600203,0.16628467355815363
34,1456704146800893,0.06693018231026945,0.09659993285371246,0.14694731460689942
35,1456704146822357,0.09670796007018355,0.11782619692653093,0.1331746588556251
36,1456704146845318,0.14983381853121783,0.13723751966056347,0.12674816930958077
37,1456704146860318,0.21616120768168978,0.1525240892987747,0.12682749322937512
38,1456704146882454,0.2833656684429573,0.16093748138956157,0.1307567247238935
39,1456704146905454,0.3398367970860139,0.1598248116232557,0.13516944579684173
40,1456704146921272,0.3768118128919285,0.14768761920180598,0.13704807403482955
41,1456704146942526,0.38943360303104524,0.12539759908605372,0.1345239962289949
42,1456704146973311,0.37689793789233744,0.09697376393311949,0.12726848597867824
43,1456704146981311,0.3421512727834456,0.06935548740948766,0.116420613576469
44,1456704147004448,0.2915571742189456,0.05095747659795776,0.10416716737008755
45,1456704147025263,0.23455306551700852,0.049343907475773774,0.09321745778062974
46,1456704147041427,0.18280394406593875,0.06881462509011553,0.08640022253840403
47,1456704147063163,0.14821308044493592,0.1087857590714447,0.08648262688594131
48,1456704147086506,0.13975868334243674,0.16353256820339143,0.0961449923612565
49,1456704147101164,0.160198992924779,0.2233596504861789,0.11788485566826107
50,1456704147123179,0.2043060215490076,0.2768538380179784,0.153566176495327
51,1456704147145191,0.25982019041540644,0.313682924882025,0.20348006589169843
52,1456704147161189,0.3110627391895507,0.32734544975569513,0.2651080559799668
53,1456704147190214,0.34391294536228023,0.31720742211856534,0.33212516825367583
54,1456704147205192,0.350260871580052,0.28908432633445963,0.3943792939750246
55,1456704147221197,0.3302619675622741,0.2537692584042245,0.4394511936867983
56,1456704147243203,0.29160584810268225,0.22352604376538554,0.45581271949086166
57,1456704147265205,0.2462089991579229,0.20759063065384617,0.436715861290563
58,1456704147281206,0.2057691819988518,0.2085870312613173,0.3832505238062681
59,1456704147305207,0.1780025395051593,0.2216850887090482,0.30504318092561455
60,1456704147324224,0.16488223035054342,0.2370306688090167,0.21799961624204336
61,1456704147341408,0.163123096862356,0.24419529531756728,0.13987487581683586
62,1456704147363236,0.16625329284847726,0.23637532910472805,0.08542691216828407
63,1456704147386414,0.16730635156512963,0.21247690964633129,0.0628903400465878
64,1456704147408238,0.16124036987277723,0.17659476119475226,0.07270264692956538
65,1456704147423247,0.14638936816121276,0.13570421686443876,0.10851099658825493
66,1456704147445264,0.12464551303409366,0.09692115009117841,0.1598644832701301
67,1456704147467265,0.10061198481297468,0.0654302946849413,0.21558618952056746
68,1456704147484266,0.0802709907568653,0.0435716046493069,0.2666252503684975
69,1456704147505271,0.06956633737756286,0.031021945369102518,0.30745890533117476
70,1456704147528973,0.07300760437702845,0.02569020606113579,0.3358829025272908
71,1456704147542943,0.09237574717229463,0.0248478510309544,0.35183846941342334
72,1456704147565677,0.1258337841200606,0.026078762402734,0.3562035554018087
73,1456704147588680,0.1678658393454239,0.02780140186721532,0.35010488336546297
74,1456704147603681,0.21027273607962516,0.02934239863121921,0.3347149636126287
75,1456704147626189,0.24406451444720614,0.030731707402376424,0.31121414105271417
76,1456704147648697,0.26175268060690116,0.03244262996030193,0.28075710066882753
77,1456704147663699,0.25940371434079124,0.03520141612648349,0.24457179181769773
78,1456704147685700,0.23786827679184797,0.039845842808850465,0.20434811380205214
79,1456704147708701,0.2027726044116945,0.04714015017520091,0.16278693423148113
80,1456704147724215,0.1631349932050243,0.057488285393745085,0.12388792056106811
81,1456704147752723,0.12889106453373012,0.07058915767660692,0.09258244587308136
82,1456704147768724,0.10808113426743154,0.08518446177882326,0.07367602964188835
83,1456704147783724,0.104693258618454,0.09908718368323648,0.07049504324139438
84,1456704147805725,0.11793555114594909,0.10959213780548535,0.08386510597201834
85,1456704147830931,0.14306072298296207,0.11418747154770933,0.11193408766289248
86,1456704147844136,0.17312289055481642,0.11132131897878077,0.15089489654135296
87,1456704147866145,0.20073149121347544,0.10094460523650632,0.1961090270716946
88,1456704147889134,0.2192502970146548,0.0846727053410428,0.24291109957930754
89,1456704147904135,0.22359706583740982,0.06558489527630769,0.2867147070575959
90,1456704147926176,0.2111164221745565,0.04776262205323439,0.32267024570048813
91,1456704147949192,0.18263813767945897,0.035619522977292276,0.34552986045991496
92,1456704147970495,0.1432099964199772,0.033029634418347505,0.3502826784683991
93,1456704147986193,0.10174089806766198,0.042346099098578345,0.33364574688767856
94,1456704148009195,0.06916257400617916,0.0635710106349042,0.2959153169372376
95,1456704148030213,0.055459987773021545,0.09401290334175377,0.24228321959563034
96,1456704148046221,0.06653767393456941,0.12865085396949966,0.18273139896204335
97,1456704148069223,0.10204780678318381,0.16117823145693577,0.1301056649124101
98,1456704148090224,0.15503092087107326,0.18547345422194114,0.09674587865314206
99,1456704148106225,0.21370333437241112,0.19714050300706223,0.09073773473545035
100,1456704148129252,0.2650408965521388,0.19477481977174343,0.11313393818621742
101,1456704148150260,0.29903288778590326,0.1806678157407421,0.15725507824008134
102,1456704148166261,0.31197124305975404,0.1607010866645527,0.2104832916880018
103,1456704148188262,0.3073546576021201,0.14321728859500968,0.25803526104158114
104,1456704148209263,0.2939690834140519,0.1368146485252835,0.2874354811029437
105,1456704148225814,0.2819607290055466,0.147435113072073,0.2921615673030861
106,1456704148249375,0.27860315772646693,0.17571950566355918,0.2732859515993736
107,1456704148270390,0.28557809343353907,0.21594630542265703,0.23868250565773094
108,1456704148286388,0.29888005935296763,0.2574547182965988,0.2001489321683244
109,1456704148309392,0.3112101694059305,0.2882990945654977,0.16934543978425565
110,1456704148330028,0.31556415189901166,0.2996791356562366,0.153757059358186
111,1456704148345544,0.30826569490021904,0.2892137098123867,0.15404343462846792
112,1456704148368500,0.2901303307096392,0.26160785615046733,0.16396383581643112
113,1456704148389710,0.2654611455563484,0.22639531845690253,0.17320706678045986
114,1456704148405501,0.2396616933543017,0.19374196316361728,0.17205548593148826
115,1456704148429716,0.2168925359501088,0.17025136874547905,0.15571950611699817
116,1456704148452430,0.19901362025043107,0.15677303244210455,0.12625950892954396
117,1456704148466431,0.18604930017107293,0.149146900798858,0.09131877049867668
118,1456704148489432,0.1772644267610516,0.1411834510693581,0.06057076728171095
119,1456704148512435,0.17167452847210257,0.12806685140136087,0.04176238395953556
120,1456704148525949,0.16770888875571122,0.10845347345694688,0.03805547895258995
121,1456704148548459,0.1628262551003926,0.08454514086635642,0.04743712376500658
122,1456704148571458,0.15399661905253062,0.060551725921256946,0.06400995602288935
123,1456704148585459,0.13908232010850166,0.04060241902591896,0.08039293268004284
124,1456704148608492,0.11823650603767154,0.027149214197779034,0.09026484665195715
125,1456704148631978,0.09431394085421019,0.020415676159696323,0.09019073829603082
126,1456704148645484,0.07195183929279848,0.018834777742700374,0.08024110445883152
127,1456704148668486,0.055787670848549055,0.02001636008626516,0.06340505307781998
128,1456704148691487,0.04866756617418066,0.021717634055916615,0.04419412464009957
129,1456704148705488,0.05059860953846143,0.02247309382047903,0.027018809495852503
130,1456704148729207,0.05883057608914357,0.021790224022244477,0.014903364590785773
131,1456704148751464,0.06897814896007963,0.019995687782269945,0.008912291287070469
132,1456704148766429,0.07665298221021975,0.017889531655960498,0.008344533742063228
133,1456704148788461,0.07888132651035275,0.01636397284321833,0.011447646931151894
134,1456704148812432,0.07476827192864824,0.016101876092138836,0.01626940318480052
135,1456704148826373,0.06531715651078658,0.017413109691166762,0.021326274641379112
136,1456704148848638,0.05272650109245888,0.020217897083298103,0.025919423480999848
137,1456704148871639,0.03961156332033825,0.02414896845166049,0.03006950771809207
138,1456704148885639,0.02841485321285273,0.028710922556727737,0.034159246590101985
139,1456704148908640,0.021008510501000863,0.03341796702906202,0.038469415470704225
140,1456704148932149,0.0183968308705232,0.037852093729088286,0.042826593128612776
141,1456704148953156,0.02051777980001314,0.0416367345079159,0.04651726666868266
142,1456704148969157,0.02624499571768837,0.044371779292410894,0.04849925538564568
143,1456704148992350,0.033672609198501964,0.04559723900610403,0.04782338961045661
144,1456704149013161,0.04063711073321082,0.0448426311829205,0.04409775915999787
145,1456704149028963,0.045294410251494284,0.041783012476554394,0.037793005890303565
146,1456704149051270,0.046535016134360375,0.03646125854866434,0.030226452985709584
147,1456704149073271,0.04412083975467116,0.02946823067388018,0.0231928587003327
148,1456704149088454,0.03857809553968812,0.021951441891504272,0.018382134033057097
149,1456704149112273,0.03096220064354712,0.015394506226951252,0.01683961071657528
150,1456704149133802,0.022594102363091017,0.011243274805265489,0.01870959591044877
151,1456704149148803,0.014816624497575969,0.010549205276083894,0.02336258227025934
152,1456704149170804,0.008793014463180796,0.013781985372919692,0.029814001637801273
153,1456704149192804,0.005364616641476418,0.02085395182400641,0.03720317940800996
154,1456704149208806,0.00496908424603799,0.03128059101320416,0.04509151828434693
155,1456704149230820,0.0075941292884467125,0.04434214821184925,0.0534509676689082
156,1456704149252330,0.012736832909592299,0.059134252997080854,0.06237272007596013
157,1456704149268332,0.019376817312273732,0.07448584704808606,0.07165575416016012
158,1456704149290333,0.02603414352462575,0.08883897838959244,0.08048862878253708
159,1456704149312334,0.031015595610973338,0.10026859521321843,0.08739988983763317
160,1456704149328990,0.032904182311841744,0.10681502489772621,0.090547962575862
161,1456704149350546,0.031212709869030776,0.10718186031632954,0.08830317601076773
162,1456704149373547,0.02696342373879452,0.10164198668831981,0.0799722506835214
163,1456704149388548,0.022865347075287323,0.09276888963538597,0.06643012153478255
164,1456704149410551,0.022815696979607867,0.08548350649696741,0.050384895207053956
165,1456704149433562,0.03067635063255749,0.08600898821380137,0.03607419035625052
166,1456704149448569,0.048622876665243564,0.09973796405001792,0.028390482967186898
167,1456704149470570,0.07569728817304286,0.12865748883875233,0.03165851372395085
168,1456704149493571,0.10732724018040178,0.1695177400434979,0.04838832987000929
169,1456704149508572,0.13635471053735415,0.21391590269658414,0.07828051473979546
170,1456704149531045,0.15552075287430195,0.25069216948613476,0.11772672506644506
171,1456704149553510,0.1605451868313609,0.26985884830874224,0.16011725176854827
172,1456704149568511,0.15233869707489797,0.26642571974805884,0.19722423957936075
173,1456704149592513,0.13700872266151812,0.24245049040032374,0.22152373888045993
174,1456704149613514,0.12333630274164024,0.20639949803110327,0.22870707374624358
175,1456704149628929,0.11880444860195251,0.17003362611973963,0.2192973833870901
176,1456704149650417,0.1261594632865098,0.14404937730693418,0.19854414711726173
177,1456704149673419,0.14228033686749592,0.13423202218690505,0.17450376314350285
178,1456704149688419,0.15990823657494083,0.13969929166750006,0.15505214909979592
179,1456704149712421,0.17122918844357693,0.1539148796941169,0.14509985366985126
180,1456704149733429,0.1713215092573817,0.16786511694272263,0.14517908457952436
181,1456704149748434,0.15973959550560216,0.17380119317393375,0.15185045047385973
182,1456704149770435,0.13984849567134902,0.16785503060157253,0.15947961800661273
183,1456704149793436,0.11688077915284875,0.1506402639446603,0.1624357286893984
184,1456704149808437,0.09601156112080701,0.12605050459571215,0.15686805874059265
185,1456704149838865,0.0810919996957068,0.09919429646117851,0.14165606894292473
186,1456704149853866,0.07398389454149298,0.0744970423134522,0.11850512488990245
187,1456704149868866,0.07431254717609713,0.05462604905014956,0.09130763789559392
188,1456704149890868,0.07967087580771606,0.040383013944862794,0.06493161237304428
189,1456704149913870,0.08638624096952009,0.031305752192001275,0.04372418422937319
190,1456704149934959,0.09076913644929245,0.02652979239348039,0.030206669887422127
191,1456704149950954,0.09046941694163796,0.02547229664756573,0.024470834654342983
192,1456704149974956,0.08539096147948223,0.028058942366211082,0.024519814357795006
193,1456704149995257,0.07770925643665935,0.03445844969924394,0.02735150177118756
194,1456704150010956,0.07090898931381498,0.04454075163824122,0.030244407991889738
195,1456704150033966,0.06824193348472918,0.0574137393008579,0.0316832334270854
196,1456704150055305,0.07131849045183598,0.07132895217100543,0.0316250986545838
197,1456704150070975,0.0794727160374163,0.08402060122493676,0.031147218918504454
198,1456704150093976,0.09011737938208453,0.09330694090857967,0.03173314174054762
199,1456704150114978,0.09982002624503537,0.0976700751839527,0.034503612386616575
200,1456704150131021,0.10556378303048948,0.09657600519610303,0.03965367044583042
201,1456704150154249,0.105675011064836,0.0904527318089721,0.046272402478632735
202,1456704150175247,0.10011935085098753,0.08041275545846041,0.052593470287923966
203,1456704150191250,0.0901723196163578,0.06789437467719525,0.05657536241156409
204,1456704150214242,0.07773094417598947,0.05437532743323681,0.056603361011952326
205,1456704150234401,0.06463686865683196,0.04122492843977436,0.05207706352282738
206,1456704150251409,0.05230321510857579,0.029671787770099586,0.04368808212322527
207,1456704150274408,0.04173662230264497,0.020817013479833255,0.03328698838603499
208,1456704150295409,0.033817105193630896,0.015627679935285712,0.023378530351616335
209,1456704150311410,0.029557489369985764,0.014885651484397348,0.016432367736131312
210,1456704150334138,0.030110891671360277,0.019110116759025634,0.014272904325022338
211,1456704150357147,0.03649665956916091,0.02848372315513647,0.01775399767986717
212,1456704150371148,0.04919257272735558,0.042781698539364074,0.02676152246973872
213,1456704150394149,0.0677656846970816,0.06126826294152176,0.040426017091556354
214,1456704150417150,0.09064892718898278,0.08254318921162693,0.0573657960279578
215,1456704150431162,0.11514015926752777,0.10440694962287445,0.07583898464138368
216,1456704150453456,0.13771844135259245,0.12390880319501314,0.09380950431974508
217,1456704150476456,0.15475420375225973,0.13776463780994141,0.10904431278085731
218,1456704150491457,0.16356560541560705,0.1432278563215064,0.11938512567459364
219,1456704150520044,0.16355786044089174,0.13927356421682224,0.1232522464661246
220,1456704150536534,0.15697673471390444,0.12768311167389504,0.12028072646375837
221,1456704150550535,0.14875864824128984,0.11342516193100763,0.11184330446380437
222,1456704150574536,0.1451957653359941,0.10378956034942872,0.10116292204114272
223,1456704150596538,0.15165993380883155,0.10615382650219934,0.09280594968873106
224,1456704150610538,0.17023367020049093,0.12497682042043716,0.09156539022401865
225,1456704150634049,0.19840594306303552,0.15928520865644136,0.10101731113975884
226,1456704150656556,0.22968260108763966,0.20204775224446214,0.12223420702932439
227,1456704150671556,0.25603917010820987,0.24212618906673103,0.15313920273755463
228,1456704150693558,0.2711117757048683,0.2682357865134119,0.18876656565675093
229,1456704150716560,0.2726136624481555,0.27328469689563795,0.2223788270715895
230,1456704150738578,0.2629409821868155,0.2571951924368081,0.24713609760064154
231,1456704150753579,0.2478277732237236,0.22692230949165743,0.2578894292283606
232,1456704150776580,0.23366729105591036,0.19355439288765036,0.25263950999369916
233,1456704150798581,0.22461606998876787,0.16765526514355586,0.23321105853074448
234,1456704150813583,0.22082828011086883,0.15489611800492672,0.20480076117706203
235,1456704150836660,0.21880215938565115,0.15402688572681844,0.174407115862833
236,1456704150857697,0.213667286482592,0.15814323551874984,0.1487037343453395
237,1456704150873728,0.20199686437906952,0.15849452959677468,0.13225829762521574
238,1456704150896663,0.18352245054599672,0.1487811806068301,0.12671497309123927
239,1456704150917663,0.16111510786918415,0.12781340071362793,0.1308756631560737
240,1456704150933705,0.13949957565819165,0.09948844832222305,0.14124814149683518
241,1456704150956676,0.12348694407707643,0.07050534302505018,0.152844462635531
242,1456704150977678,0.11627949583874488,0.04722255885184345,0.16031280659905842
243,1456704150993878,0.11825845860454835,0.03318289309614176,0.1593645986950619
244,1456704151016898,0.12668306538002364,0.028232655685459573,0.14805857508393147
245,1456704151038890,0.136551044759479,0.02929832523026429,0.12734599973009592
246,1456704151054103,0.14238409084655887,0.03218578163449998,0.10060989338281386
247,1456704151077105,0.14021574156954353,0.03347516643517814,0.07247613582091524
248,1456704151097912,0.1289433627631484,0.03172576838555868,0.047483662122020265
249,1456704151113894,0.11053628807689173,0.02764175692126244,0.029096552549735068
250,1456704151136194,0.08913066521473614,0.02334531949900846,0.01921958147520471
251,1456704151158319,0.06947378182787325,0.021231874841342965,0.018131462199655165
252,1456704151174316,0.05534168189589764,0.02293446744303635,0.02468487252305793
253,1456704151195312,0.0484667891984676,0.028748151917917523,0.03666432742608962
254,1456704151218199,0.04827653205963363,0.03760533111632944,0.05124078673255453
255,1456704151234402,0.05244267277485055,0.04749013573334683,0.06547831583365869
256,1456704151256374,0.05795569129558719,0.056090143805370606,0.07684038370844515
257,1456704151278385,0.062274967154160706,0.061477332758931684,0.0836244305020848
258,1456704151293385,0.06412753388009781,0.06263487192625958,0.08523562876962634
259,1456704151315402,0.06369781229300998,0.05968436699117601,0.08221122001996797
260,1456704151338386,0.062189146740326974,0.05374026600112885,0.07594606279641533
261,1456704151353324,0.06098810896808186,0.046441018865294954,0.06816496380536763
262,1456704151375380,0.06084130936298843,0.0393439273786517,0.060318206345545286
263,1456704151398328,0.061442947013807904,0.03343766100488122,0.05315610704359081
264,1456704151414328,0.061602711835256896,0.02896377528432645,0.046672409644945144
265,1456704151436347,0.05985654653987296,0.02557819264740361,0.040412970869553845
266,1456704151459181,0.05518210344541628,0.022724959493707265,0.03395785216261132
267,1456704151473379,0.04747475913804469,0.0200218638303023,0.02731911735692986
268,1456704151495377,0.037604697323238026,0.01748971771117615,0.021071218207431002
269,1456704151518377,0.027108421553670124,0.015558770695056899,0.016185468438635334
270,1456704151534349,0.017728823593926718,0.014899659519888487,0.013687371642607265
271,1456704151555711,0.011025002656991828,0.016198989431984646,0.01432474213437067
272,1456704151578712,0.00816908955384752,0.0199987636005331,0.018400729802407503
273,1456704151593712,0.009928571382190412,0.026648899889006684,0.02581367175903757
274,1456704151615988,0.016748878353101272,0.03632729882215407,0.03621967617036318
275,1456704151639657,0.028808360184990726,0.04902268105674946,0.049171116690609015
276,1456704151653658,0.04592884665589991,0.06439228858879847,0.06412072825328602
277,1456704151675888,0.06730733669902737,0.08149973050292568,0.08028267736851641
278,1456704151698661,0.09117017756081224,0.09856542006672876,0.09644226621300084
279,1456704151713663,0.1145769988981872,0.11295197150654282,0.11085893691319426
280,1456704151735546,0.13364300368480478,0.12159108511556423,0.12139807498239184
281,1456704151749596,0.14435295111943203,0.12190718426506136,0.12595501060948347
282,1456704151771842,0.14389661830808834,0.11303905097528577,0.12311008204788366
283,1456704151795557,0.13212310110089065,0.09690346946361057,0.11281690978643606
284,1456704151809564,0.11244647488322351,0.07852483012281351,0.09685133871654762
285,1456704151832069,0.0915456872057266,0.06519013786385372,0.07879537313917959
286,1456704151854582,0.07761072296547074,0.0644022581081572,0.06348210760409942
287,1456704151869620,0.07758471854330745,0.08117598815250797,0.056000164930316364
288,1456704151891586,0.09448007520359404,0.11569579913957274,0.06046902151874474
289,1456704151915844,0.12600939047579002,0.16242793025452495,0.0788333179192503
290,1456704151929806,0.1652959876509852,0.21129969607190277,0.1099448547892176
291,1456704151951747,0.2034728984483921,0.25070198171815455,0.14925962020996583
292,1456704151974534,0.23301247251041987,0.27127468765354995,0.18948145978692496
293,1456704151989606,0.2502412439846121,0.26908717593798,0.22224184489010188
294,1456704152011751,0.25596424872059986,0.24702715061316163,0.24042171612059807
295,1456704152034973,0.25412166371291917,0.21382004967732154,0.24031985396739045
296,1456704152050295,0.2492837255919051,0.1809181070839605,0.22286626639515325
297,1456704152072268,0.24417179502604058,0.15833322340170278,0.1934350409772631
298,1456704152095284,0.23831532817882295,0.15105206714320485,0.16028121072179155
299,1456704152110355,0.22852228487486645,0.15756705212912306,0.13206925702564193
300,1456704152132067,0.21101521638745135,0.17111553966620158,0.11531930493844125
301,1456704152154875,0.18408604151978947,0.18288748607284325,0.11268909103902783
302,1456704152169627,0.1496803870606804,0.18558081523887557,0.12265008188921028
303,1456704152191802,0.11298006713342336,0.1757659349318013,0.14045512663670945
304,1456704152214802,0.08035726107139969,0.1543564298257777,0.1597915387199967
305,1456704152229882,0.056955262041787184,0.12544972365931786,0.17446961901844435
306,1456704152252351,0.04505444625861387,0.09439129989329893,0.17976656868480118
307,1456704152275179,0.04369058315535023,0.0659795884237576,0.17328941241609064
308,1456704152290181,0.04936903889663914,0.04340143689228262,0.15530308745520477
309,1456704152312347,0.05742078482801799,0.028016340386198754,0.12849940175706032
310,1456704152334928,0.06347725300861737,0.019728957271247162,0.09726802627569564
311,1456704152349438,0.06461132517630384,0.01755578438189971,0.06664983382832462
312,1456704152371442,0.0598802153017697,0.02010010765198899,0.041229449520348765
313,1456704152394649,0.050239049055790824,0.025852092637865545,0.024221792028416764
314,1456704152409699,0.037970729293954994,0.033365874439782846,0.01693954505275962
315,1456704152432330,0.02586794044678288,0.04138192342492782,0.018729645173302622
316,1456704152455165,0.016429893226352497,0.048917739789804564,0.027362140788113026
317,1456704152470166,0.011301904577541879,0.05531475897428087,0.039748369054166184
318,1456704152492315,0.011075265477787295,0.06022830127715292,0.05277592372988291
319,1456704152515168,0.015410809217700619,0.06356445934461655,0.06402189444748073
320,1456704152529963,0.023339334885073202,0.06538212842440369,0.07216332810024449
321,1456704152551836,0.033582011293377324,0.06578445534220974,0.07701210125752342
322,1456704152575198,0.044794120730193725,0.06482731262706043,0.07921949376181159
323,1456704152590134,0.05570424054153823,0.06247532188568634,0.07979416214262235
324,1456704152613843,0.06516975680250893,0.05863144546182871,0.07961912244058834
325,1456704152635146,0.07219651338468672,0.05324443145169563,0.07911904351535888
326,1456704152650140,0.0759769412740501,0.04646045551523769,0.07815120989229997
327,1456704152672141,0.07598689557803742,0.03875040455088355,0.0761215317824786
328,1456704152695143,0.07213925812551458,0.030937605592351716,0.07227523582936289
329,1456704152710144,0.06492646647462144,0.024083392146388525,0.06607086720034099
330,1456704152732163,0.05544435513888152,0.019251796854221997,0.05751916955156852
331,1456704152754973,0.045238272919546525,0.017245396685854765,0.04737313104788781
332,1456704152769965,0.03603085929037683,0.018439024472218436,0.037102804064500776
333,1456704152792254,0.029469194117321077,0.02279664610442058,0.028665531275790208
334,1456704152815233,0.02698900218094302,0.030048374199778433,0.02415435888738579
335,1456704152837901,0.029778905334421134,0.03989918462881286,0.02543676871523851
336,1456704152851574,0.03873776666569328,0.05211548066171348,0.03386129521150746
337,1456704152874570,0.05431035762370133,0.06641025673098155,0.05002923119437827
338,1456704152897720,0.07616955834616553,0.08217534389804372,0.07357025986873807
339,1456704152912571,0.10285835613067316,0.09822006831776596,0.10289368450142114
340,1456704152935298,0.13162786718780514,0.1127194007935097,0.13500104974160942
341,1456704152957591,0.15870382157871218,0.1235286672405424,0.16554926310204018
342,1456704152971597,0.18005757659587832,0.1288858135011087,0.18936179114471657
343,1456704152994598,0.19253484385803027,0.1283244381072489,0.20148291766138146
344,1456704153017937,0.19500713269416675,0.12342535773603727,0.19867267025248192
345,1456704153032388,0.18909797824532779,0.1179385181129454,0.18096833842459992
346,1456704153054704,0.17905069100403095,0.11692695180560325,0.15267739899892424
347,1456704153078005,0.17056342695765928,0.1249911979451175,0.12211081546896001
348,1456704153091999,0.16893089293884594,0.1442084765425291,0.09970906980905864
349,1456704153115062,0.1772889820901188,0.1727871147258049,0.09492134179091798
350,1456704153137798,0.19571137735798824,0.2052086469029492,0.1129080368668055
351,1456704153152090,0.221350565904281,0.23387322024742593,0.15239036062236663
352,1456704153174800,0.24932744135290622,0.25154002690369387,0.205586389647562
353,1456704153198127,0.2740531839628855,0.25364872247336173,0.26035268191205285
354,1456704153212097,0.29078687663388086,0.23984383669356615,0.30379633329984773
355,1456704153234808,0.29705130342106584,0.21430084249415715,0.326113572147246
356,1456704153257831,0.2932303423243113,0.18462577496267563,0.3234179294794291
357,1456704153271826,0.2818001861185884,0.15941208338873222,0.29872915371320635
358,1456704153303830,0.2654115075073036,0.14515386906479824,0.2608563480189548
359,1456704153317833,0.24499894362776445,0.1437982838765005,0.2214842803540471
360,1456704153332242,0.2193734443193989,0.1521592178153894,0.19134529232919975
361,1456704153354996,0.1868061456206029,0.16351639757499414,0.1768077412016929
362,1456704153377997,0.14753145502184062,0.17054977900661583,0.17818775309793242
363,1456704153391988,0.10529123088859961,0.16813898294353374,0.19036519357835335
364,1456704153414926,0.06676015806163156,0.15484133516290513,0.20519636413972275
365,1456704153437918,0.03920247333834436,0.13271293910096674,0.21449467418214677
366,1456704153451584,0.027708744290879016,0.10593769105104475,0.2124149442241133
367,1456704153474948,0.03331061082412926,0.07908024030641776,0.19668853403586742
368,1456704153497580,0.05258800242408063,0.0556759176591437,0.16875748811616292
369,1456704153512580,0.07870241552755666,0.03753810976645158,0.13309731012364487
370,1456704153535091,0.1034025321068485,0.024814751149222866,0.09596938488714941
371,1456704153557432,0.1194020622275991,0.016571352589693604,0.06379736657199689
372,1456704153579427,0.12248393548176353,0.011559333162257988,0.04148206342085393
373,1456704153594763,0.11270856688934551,0.008848513487062195,0.031136596796864303
374,1456704153617730,0.09428589705351491,0.008127662700660511,0.03169844926956628
375,1456704153632222,0.07407281265381878,0.009643013495307183,0.03957606201422972
376,1456704153654846,0.05917058341378829,0.013883885611332872,0.05006475139716287
377,1456704153677554,0.05447848591254533,0.021192361442030707,0.05894859940848975
378,1456704153691735,0.06111457933524356,0.03145985559264457,0.06365759907395888
379,1456704153714660,0.07630034444396243,0.0440005942858551,0.06361442453581957
380,1456704153737656,0.0947108561733109,0.057608368533314226,0.05983754838095741
381,1456704153751666,0.11064233683551829,0.07075182364028873,0.05417951401833231
382,1456704153774668,0.11999644753596807,0.08184832559014975,0.04858729941832574
383,1456704153797948,0.12127485657081545,0.08954867097215738,0.04457550013358114
384,1456704153811896,0.11538778032138391,0.09295720724537254,0.04293482640522399
385,1456704153835111,0.10466947762955865,0.09173336730430309,0.04365121735202233
386,1456704153858226,0.09171739170258096,0.08608055253460836,0.04600985437230102
387,1456704153872105,0.07853333850338173,0.07668041088420531,0.048839151713757106
388,1456704153895300,0.06616647369621005,0.06462584108621135,0.050833309314248225
389,1456704153918301,0.05482045469646664,0.05135631336879629,0.05089781594286655
390,1456704153932285,0.04425026881090439,0.038557773887138554,0.04846639175206968
391,1456704153955640,0.03423463621303786,0.027990983218289085,0.043726917280114415
392,1456704153977648,0.024946410456941005,0.021253304068456973,0.037688835021625004
393,1456704153991643,0.017121177533049054,0.019534197670490677,0.03204783441701133
394,1456704154014644,0.012006562889837808,0.02345564635297958,0.028858825446209296
395,1456704154037757,0.011135514723960058,0.033058651576943425,0.030099100332956864
396,1456704154059766,0.015993597880649524,0.04790769797119898,0.03725068430575199
397,1456704154075063,0.02765134930694672,0.06719771453285346,0.05100681346188262
398,1456704154097767,0.04643019435937165,0.08974164817108687,0.07111331317475925
399,1456704154120051,0.07166929735998621,0.11381621892706938,0.09627400980667274
400,1456704154134937,0.10164798260424714,0.1369942498120331,0.12407232299622808
401,1456704154157022,0.13370045966239827,0.15619955835366736,0.1509828660548501
402,1456704154189023,0.16455717015796906,0.16820484570122213,0.17266374037068716
403,1456704154195023,0.19094106108769168,0.17062488320261837,0.18472184164642216
404,1456704154217199,0.21037758480978938,0.16317545349788545,0.18397695750505705
405,1456704154240134,0.22202445317883623,0.14868101185155314,0.16994656002548658
406,1456704154254880,0.2271720717276111,0.13318053700121216,0.14596570222082242
407,1456704154276846,0.22905322209566456,0.12466357971025763,0.11924901265617398
408,1456704154300057,0.23183563906482224,0.13051932594102422,0.0994511480970022
409,1456704154314982,0.23909667552628863,0.1545109093006111,0.09587686685412176
410,1456704154336609,0.2524335611354527,0.19457354787245498,0.11421332160155459
411,1456704154360123,0.2708468118186287,0.24258648368022645,0.15411942319279193
412,1456704154374124,0.291107340302303,0.2864788839714663,0.20882689404144045
413,1456704154404126,0.30880209067775627,0.3140380841610571,0.2670412710103233
414,1456704154419127,0.31956050601383146,0.31709721744699904,0.3163696760081343
415,1456704154434633,0.32014877400953273,0.2945855027933973,0.3469297622103256
416,1456704154457193,0.30928669267899866,0.2532065967312419,0.3539635772451094
417,1456704154480145,0.28791460240179484,0.20526235271461798,0.3388422818426693
418,1456704154495190,0.25858220764680206,0.1642664507485939,0.30833492887553626
419,1456704154516514,0.22414685872954204,0.14006205056683207,0.2723432018070146
420,1456704154540255,0.186693119475568,0.1355183650018605,0.24069420715592518
421,1456704154555281,0.1475503893363334,0.1461778958913889,0.2200568687163731
422,1456704154577278,0.10831366888395973,0.1627955667164355,0.21219665644358768
423,1456704154600257,0.07185754846496248,0.1753897615251123,0.21421420209867528
424,1456704154614260,0.0423793456651331,0.17692501197371183,0.22037586439365361
425,1456704154637088,0.024309810743531408,0.16520525362463576,0.224434573309827
426,1456704154668584,0.020661332896516848,0.14258590462970291,0.22144974155288336
427,1456704154674944,0.03159622945033436,0.11412025043825898,0.2087371885329809
428,1456704154696586,0.05382355891460045,0.08527049398457395,0.18608137808052297
429,1456704154719871,0.0811163982595523,0.06019782355580983,0.1554633686854321
430,1456704154735373,0.10586934584196464,0.041104149331996596,0.12047582704325396
431,1456704154757380,0.12123613455633435,0.028495530090242364,0.08553668170703183
432,1456704154779383,0.12312765526140015,0.02187619557485649,0.055022670984444265
433,1456704154795384,0.1113592634021018,0.020376427942548285,0.03246534817809933
434,1456704154817384,0.08955098584268172,0.023070929659104893,0.019945661151512046
435,1456704154840467,0.06386631826541268,0.02902987329486032,0.01779281285482098
436,1456704154854802,0.041086685859889,0.037274771584035506,0.024645532840152414
437,1456704154876476,0.026690015632991757,0.046767907380915553,0.03785757483222351
438,1456704154899472,0.02351383196323962,0.05646084617602494,0.05413221472563693
439,1456704154914473,0.031313738934759555,0.06536603150201792,0.07020359050760469
440,1456704154937268,0.04719424587673661,0.07261278202743884,0.08338791374911192
441,1456704154960093,0.0666260999481109,0.07747528575142146,0.09189529493503178
442,1456704154974813,0.08466899453766889,0.07938843491201521,0.09488586286474254
443,1456704154996813,0.09708213662809861,0.07798148458564477,0.09233724765080867
444,1456704155020031,0.10113452973578305,0.07315017890738419,0.08483698462570098
445,1456704155035222,0.09602879799554484,0.06515918092468123,0.07340639105790028
446,1456704155056774,0.08290080039927611,0.0547362100076961,0.05940322082547129
447,1456704155079770,0.06440289334587461,0.0431045806973697,0.0444670925472015
448,1456704155094998,0.04397733680934682,0.03190815478006764,0.030419497466945195
449,1456704155117002,0.02504405409788224,0.023011579960226698,0.019055719746423325
450,1456704155140100,0.010361995211421839,0.018206008575211784,0.01185758007202076
451,1456704155154799,0.0017272815970887142,0.018898547575167162,0.00974133359787755
452,1456704155177134,0.0,0.0258738945304697,0.012957806789938351
453,1456704155200134,0.00530919489715978,0.039166770026648576,0.02116840097172959
454,1456704155215018,0.017250305464539258,0.058013328083908494,0.03360113314296796
455,1456704155237114,0.034967138035118674,0.08083173118419444,0.049146283278176404
456,1456704155260163,0.057140356081731784,0.10524288485519315,0.0663259499612345
457,1456704155275167,0.08200514865201093,0.12823334616275725,0.08321221119535561
458,1456704155296835,0.10752868457822855,0.14660182147179207,0.09746427687655962
459,1456704155319843,0.13177052259869193,0.1577528117335926,0.10662899737944503
460,1456704155342160,0.1532782743071613,0.16069591641817801,0.10871666929123372
461,1456704155357251,0.17126599478734872,0.1568584538362231,0.10290556420360404
462,1456704155379160,0.18540848338675628,0.15018666417702653,0.090117898094662
463,1456704155403177,0.19535916352547222,0.1461624193075249,0.07318927447430339
464,1456704155417179,0.20038702828794225,0.14984249056560647,0.05644938317399922
465,1456704155440249,0.1995709303560839,0.16365023587802896,0.04473529309311315
466,1456704155462342,0.19264675767584538,0.18600457864533812,0.04209580329537432
467,1456704155477244,0.18103211445867215,0.21158656625486943,0.05060897386622087
468,1456704155500249,0.1681911572333446,0.23319560211756424,0.06974173137701738
469,1456704155523288,0.1587637677001027,0.24431831001765794,0.09649801377148308
470,1456704155537093,0.15672142755964233,0.24129808608495376,0.12628263352697783
471,1456704155559134,0.16359466036274053,0.2243922645381006,0.1541123324365933
472,1456704155583169,0.17784620978344026,0.19760516370856201,0.17572781484021988
473,1456704155597172,0.19568576078429667,0.16756698495337613,0.1883542732689987
474,1456704155620171,0.21268160696871496,0.14180199764428267,0.19112566298730355
475,1456704155642859,0.22512786171804697,0.12669347587285978,0.185246673943718
476,1456704155657121,0.230486721394064,0.125538651984217,0.17378751632533607
477,1456704155679862,0.22704372957944033,0.13729938743237247,0.16089784217435646
478,1456704155703130,0.21358232179060088,0.15670371927838272,0.15047411768639704
479,1456704155717130,0.18979845574109389,0.17593602481729115,0.14479004705549073
480,1456704155739452,0.15731198377323494,0.1873705001913854,0.1438204051376579
481,1456704155763469,0.12030550882385527,0.18618298679241338,0.14563198601836957
482,1456704155776739,0.08491655706057769,0.17170088376764914,0.14752362753475962
483,1456704155799860,0.05744178235205425,0.14702530066815248,0.14717131250375126
484,1456704155822763,0.04225994542934445,0.11734033925198306,0.1432083978524307
485,1456704155836971,0.040463653419466436,0.08787188384738878,0.13520055069767103
486,1456704155859489,0.04966619796232372,0.06240777628334492,0.12335708271590975
487,1456704155882716,0.0648797151519119,0.04279394000161082,0.10830352865946986
488,1456704155896484,0.08005812677818337,0.02926267538462632,0.09098775302041272
489,1456704155919789,0.08982476595001931,0.02113747335698323,0.07261995100179018
490,1456704155942842,0.09092735099973659,0.01746612479560497,0.05457245491139713
491,1456704155956804,0.08302815361936461,0.01735061154260903,0.03825480956996134
492,1456704155979801,0.06858474138741273,0.019992323610102787,0.024994400264317134
493,1456704156002020,0.05184945359390119,0.024611955535194987,0.01591162807042918
494,1456704156017024,0.03734136770353404,0.030395848859174596,0.011768027450340389
495,1456704156039518,0.028354507778653313,0.036528698998267474,0.0128069816756234
496,1456704156062148,0.026042045205118516,0.042287332118554954,0.01864849085864873
497,1456704156077146,0.029369490466554335,0.04713721770084739,0.028293328655940506
498,1456704156100153,0.03586707926496409,0.05078526500649528,0.040248280690894554
499,1456704156122151,0.04278450855139805,0.05317200725537263,0.05275141642391597
500,1456704156136968,0.04811327107855154,0.05441341930272891,0.06407132876015499
501,1456704156159793,0.0510749948065635,0.054719973807820885,0.07284156535391492
502,1456704156181757,0.05200738759782055,0.05432451158627333,0.07834443431773867
503,1456704156196758,0.05189169194888607,0.05343693147888,0.08061556391800526
504,1456704156219991,0.05184718325978828,0.05221853127878363,0.08027479643016106
505,1456704156242205,0.0527694558022268,0.050753233397776897,0.07811912039643006
506,1456704156257206,0.055107851052361226,0.049004531718628064,0.07466423900901965
507,1456704156279208,0.05873218466482495,0.046778984878621754,0.06988206089351869
508,1456704156301421,0.06291045102485915,0.043742579635477535,0.06329882543681357
509,1456704156317209,0.06646763704387881,0.03953039281784481,0.05443255579112567
510,1456704156340115,0.0681353810472353,0.03394706111164221,0.043355696237290846
511,1456704156361121,0.06698853505275373,0.027193166985905202,0.0310737502148855
512,1456704156376123,0.06281463429149481,0.020006990332603516,0.01948377716904818
513,1456704156400149,0.05630458572229057,0.013622876083105993,0.010895419372409764
514,1456704156422143,0.049008285712654344,0.009527484179054403,0.007325676490589664
515,1456704156437116,0.043025233631016506,0.009096982033385718,0.009868129375855952
516,1456704156459305,0.0404659840008126,0.01325293030016959,0.018365768860868388
517,1456704156482145,0.04286262325856366,0.022258338873855393,0.031481217376224405
518,1456704156506148,0.05080443426693024,0.03571370837823956,0.047136024295193306
519,1456704156520144,0.06397361941233541,0.05272838715675501,0.06317600333663916
520,1456704156542114,0.08148561960927544,0.07215014851729909,0.07801053660596395
521,1456704156566144,0.10222337969926615,0.0926900439613542,0.09094445787206429
522,1456704156579114,0.12489025205973696,0.11285293100467077,0.10204260824358917
523,1456704156602139,0.14776751607274907,0.13076372257691962,0.11159535486117456
524,1456704156626100,0.16844364980518897,0.14413725626518253,0.11945781256651687
525,1456704156639844,0.18388271910126977,0.15063894959240204,0.12461580022448356
526,1456704156661343,0.1910554508977108,0.14868936927020884,0.12526604851504874
527,1456704156686343,0.18804360289003547,0.13846175629977803,0.11951248369662364
528,1456704156699645,0.1751953073029293,0.12256912797084561,0.1065147404132684
529,1456704156721630,0.15573154219960925,0.10591973872004329,0.08764262379293793
530,1456704156745693,0.1353361254292505,0.09453765218328235,0.06701598409540988
531,1456704156759848,0.12071856750574797,0.09368767378983162,0.05091899180614369
532,1456704156781788,0.11767042867363203,0.1060717619632026,0.04604671986412039
533,1456704156805851,0.1293529966866749,0.13084303593560612,0.05716950802839152
534,1456704156819845,0.15533655532867705,0.16372322652503246,0.08518985226721379
535,1456704156841359,0.19155640134296845,0.198007760015457,0.1264492106390647
536,1456704156865356,0.23115988471565746,0.22607978904526943,0.17358571149751334
537,1456704156879356,0.2661434681676575,0.24118119534128388,0.21757930992900967
538,1456704156901357,0.28951483952913165,0.2392405630994934,0.25021599174449244
539,1456704156926151,0.29741425628921364,0.22035136167424255,0.2662082573823233
540,1456704156939663,0.29036328092137825,0.18926074244794375,0.2644715512337837
541,1456704156962160,0.2728841956236939,0.1543388333702847,0.24831494501507717
542,1456704156984167,0.2513560474535695,0.125057213965056,0.22446414252544572
543,1456704156999168,0.23096751614623587,0.1087674037674002,0.20102572653197873
544,1456704157021168,0.21339403847537824,0.10809856137466824,0.18487297012328216
545,1456704157044635,0.19665185960735893,0.12018495715565816,0.17937032910402326
546,1456704157059423,0.1772698838971432,0.1381064023197416,0.18344846310629767
547,1456704157081582,0.1533138882619913,0.1538140101756875,0.19248812803918833
548,1456704157104390,0.12623992478995383,0.16112514596449906,0.20051561901889536
549,1456704157119637,0.10050137321304432,0.15750757534595722,0.20254645213143432
550,1456704157142102,0.08137228494822013,0.14414009785277992,0.19601549248452266
551,1456704157165120,0.07237807774634743,0.12459647614284504,0.1809301770732741
552,1456704157188120,0.0736669212077249,0.10300443873966433,0.1591138223235621
553,1456704157202105,0.0819729141179493,0.08254472875953425,0.1332227651117338
554,1456704157225097,0.0920029265261511,0.06479789943394788,0.10605174196219365
555,1456704157239831,0.09848401310893345,0.049957421860458484,0.08023040391035197
556,1456704157262339,0.09795215588756764,0.037548381084949074,0.05809666884235146
557,1456704157284641,0.08964120565958208,0.027171186720299993,0.041498030568304985
558,1456704157299639,0.07532227054150507,0.018921207518582357,0.031465121739259035
559,1456704157321627,0.05836844222220123,0.013381349485072245,0.027921577462341994
560,1456704157344763,0.042511632015336226,0.011294531186949057,0.029664735415303733
561,1456704157359436,0.030725899367890247,0.013124542653549159,0.03473088607566088
562,1456704157381831,0.024527495703314032,0.01871417906045453,0.04103839798568863
563,1456704157404764,0.023823763930235067,0.027184125948931916,0.047028600459878785
564,1456704157419439,0.02729571788351998,0.037114670560329854,0.05200559348719484
565,1456704157441469,0.0331425007388592,0.04693946711427503,0.056032755982525516
566,1456704157464470,0.03986168085505569,0.055388069838420415,0.05949605185523708
567,1456704157479471,0.046690138171549954,0.061785629051809204,0.06262884651660089
568,1456704157501756,0.05351045408650802,0.06608552964688238,0.06527154501673596
569,1456704157524814,0.060386133790367454,0.06864937785545744,0.0669406779924797
570,1456704157539864,0.06714361679963626,0.06991601456512817,0.06708057875355415
571,1456704157561334,0.07332583311939408,0.07013770631417166,0.06530873914875816
572,1456704157584637,0.07848742152787062,0.06929386819299371,0.061541656712033065
573,1456704157600335,0.08251919356882247,0.06717751576078777,0.0560031503576375
574,1456704157621629,0.085706016492158,0.06356603991259958,0.0491779808383411
575,1456704157644763,0.08846776246030354,0.05837942309527666,0.04175205979407364
576,1456704157659760,0.09096882659714277,0.05177718502786639,0.034523214996095425
577,1456704157681432,0.09283781016689001,0.04419403374744947,0.028250912828660903
578,1456704157704694,0.09313627493186107,0.03632740002696617,0.023466760253264028
579,1456704157721666,0.0905983232371499,0.02907977348797634,0.020334672775334062
580,1456704157741670,0.08410733189431899,0.02345229288284117,0.018659328491452798
581,1456704157764664,0.07331419946414405,0.020392367095250483,0.0180778637003425
582,1456704157781666,0.05918357825850635,0.020619506020239174,0.018364635659347164
583,1456704157801958,0.04418573284343565,0.02448966893376173,0.019689258139384835
584,1456704157824969,0.03195804692056416,0.03197663768718817,0.02266389811772202
585,1456704157847983,0.026503703561254546,0.042799255312808,0.028121987554137202
586,1456704157862136,0.031208261725301268,0.05661471245963232,0.03671960440792132
587,1456704157885166,0.04800094559050021,0.07311749862269601,0.04854165230064183
588,1456704157907135,0.07685594527271696,0.09191379089610703,0.06288059629851309
589,1456704157923169,0.11563871966140066,0.11218250322169135,0.07825719023933693
590,1456704157944301,0.1602167085137632,0.13230826069331872,0.09263975900857954
591,1456704157966304,0.20483494696416554,0.14977254705964968,0.10377451426320906
592,1456704157981300,0.24288907696142834,0.16154334215202812,0.10958305875358502
593,1456704158004520,0.2682146882678297,0.16500631503986732,0.10863488346446622
594,1456704158027836,0.2767620743312752,0.15919642788860414,0.10067214982408162
595,1456704158041541,0.26815348165372666,0.14583111542908228,0.08704805415448268
596,1456704158064547,0.24638770724033662,0.12955719824408385,0.07082599586746696
597,1456704158086764,0.21911389034851378,0.11702230211665074,0.05630564689299334
598,1456704158102759,0.1954833664185536,0.11486892027968415,0.04797395539186465
599,1456704158124779,0.1833257002539791,0.1273390171313708,0.04922160262550295
600,1456704158147803,0.1868240770162601,0.15452618325420786,0.06134697647738855
601,1456704158165784,0.20567801493760923,0.19210468258388488,0.08320701806826267
602,1456704158185124,0.23598053138949066,0.23262726417078977,0.11150933681866465
603,1456704158207069,0.2720996087493657,0.26771821367617454,0.14151033457280165
604,1456704158221792,0.3083833607574958,0.29026224806362394,0.16792395291364606
605,1456704158245160,0.33995110334172074,0.2960457146246934,0.18595425494494258
606,1456704158267888,0.3628264309050179,0.28475398247645106,0.19233552491848813
607,1456704158283083,0.3742046481459391,0.2603180383700728,0.1861553500339649
608,1456704158305082,0.3731659009347574,0.23036941544874104,0.16922189092357667
609,1456704158326834,0.3612259977433272,0.2044457079855464,0.14585010412889787
610,1456704158342140,0.3418201400674243,0.1909918815950585,0.1220776930984341
611,1456704158364157,0.3185449918227905,0.19405503364341967,0.10440482638350207
612,1456704158388157,0.2931605099178749,0.21124216811763008,0.09823886488813514
613,1456704158403159,0.2649288813090474,0.23425932950939052,0.10639116146910763
614,1456704158425160,0.23212113275891172,0.25207038395541187,0.12810943506089692
615,1456704158447183,0.19480909011372533,0.2552290489951612,0.15902435535632606
616,1456704158461183,0.1568338828189896,0.23932691867685005,0.1920594380998616
617,1456704158484397,0.12530850319851147,0.20611972069163056,0.21906842695265744
618,1456704158507452,0.10776340623121906,0.1621861694937204,0.23285692110788986
619,1456704158522519,0.10855533416385381,0.11608511366860463,0.22916976124715802
620,1456704158552122,0.12643471492910574,0.07539254115923824,0.20809440896110307
621,1456704158576148,0.15439405599447578,0.04472623556711592,0.17431517060720794
622,1456704158583148,0.1818284484453686,0.025233848250439415,0.13594525062420645
623,1456704158605144,0.1981685394703219,0.015383842681608188,0.10220447949656335
624,1456704158627923,0.19666544052452403,0.012463617622744593,0.08071915679834601
625,1456704158643216,0.17692454383506712,0.014031336432284942,0.07540489030663833
626,1456704158664219,0.14515547602625414,0.018708024314781555,0.08563628663734317
627,1456704158688219,0.11194296719714163,0.02608789380873356,0.10683447457576069
628,1456704158704220,0.0883789126443283,0.03601867939885801,0.13203380858694447
629,1456704158725221,0.08210976648777826,0.047812241100078395,0.1537574637603257
630,1456704158748367,0.09485894836193082,0.059916193471588886,0.16570975926513162
631,1456704158763369,0.12229919528884298,0.07023762083965748,0.16409093457893942
632,1456704158784670,0.15609811969446002,0.07688310407638907,0.14842830266621118
633,1456704158807742,0.1870125991266336,0.07884365122518334,0.1217194643062193
634,1456704158823371,0.20759262658596253,0.07624482101730887,0.0896960035880607
635,1456704158847166,0.21360150930459484,0.07009900794122882,0.05928753494935603
636,1456704158867208,0.2042001093357039,0.06179628427595088,0.036718031652030345
637,1456704158883166,0.1814673182333061,0.05265999009829926,0.025837962893396325
638,1456704158905167,0.149656938843482,0.043750467723115645,0.027209320866224376
639,1456704158927745,0.11420214391750266,0.035867787259523366,0.038203954662716214
640,1456704158943258,0.0804373635736074,0.02957991246335496,0.05404551805410493
641,1456704158964261,0.05232400894688951,0.02517160733291287,0.06940060249838315
642,1456704158987268,0.03169241301500354,0.02256276163556942,0.07993628403588465
643,1456704159003262,0.018326343022021154,0.021309281332466675,0.08333550633135843
644,1456704159025263,0.010771564799288083,0.020736595185710218,0.0795560084592845
645,1456704159047531,0.0074229640892534594,0.020165916298312023,0.0704223425902156
646,1456704159069533,0.007410480734531025,0.019153558555942692,0.058791274999299474
647,1456704159084539,0.010969430354004798,0.017660957269032336,0.047557538183517815
648,1456704159107757,0.01919472558266276,0.01608671794217147,0.038779538883144664
649,1456704159129751,0.03327560055407725,0.01513425059986079,0.033211921979578084
650,1456704159144705,0.05348682698199381,0.015554206240916578,0.030434490396695744
651,1456704159167728,0.07834469522036254,0.01785307889363176,0.029511255923155077
652,1456704159189773,0.10434100201300835,0.02207365037545957,0.029812272050911824
653,1456704159204802,0.12650051732056647,0.027728155834344462,0.031512173475363156
654,1456704159228075,0.13970540318951466,0.03390401400542397,0.035478316996934774
655,1456704159249579,0.14037812026448795,0.039487596623168274,0.04265253245690702
656,1456704159272589,0.12784798851521426,0.043416188783397966,0.053315043898568594
657,1456704159287589,0.10474707952297717,0.044897373290960906,0.06661245197475431
658,1456704159309870,0.07619582891420716,0.04357937913343063,0.0805261243728081
659,1456704159324875,0.04814998661668092,0.039652698322236404,0.09226954811561688
660,1456704159347888,0.025673183380434055,0.03383111765690382,0.0990167534438903
661,1456704159369889,0.011815333683462385,0.027173848282427755,0.09879943068547932
662,1456704159385123,0.007346205924492621,0.020789087307550903,0.09130557901650846
663,1456704159407892,0.011164069515655553,0.015539801651448745,0.07823298156855747
664,1456704159429716,0.021009485034634824,0.01188358659858635,0.0629273854970555
665,1456704159444189,0.034169051589391056,0.009904765993737488,0.04932509938532282
666,1456704159467233,0.04802834786527365,0.009485583717262838,0.04059742598692394
667,1456704159489197,0.06048293322346585,0.010489558119136327,0.03809802253190469
668,1456704159504192,0.07023453277238986,0.01284117288416276,0.04107305675808547
669,1456704159527738,0.07690438500991864,0.016467025783031327,0.047202610276951946
670,1456704159551248,0.0808498843180124,0.02115518329885273,0.05365791305982812
671,1456704159564211,0.08269972801123546,0.026436535706221623,0.05817206938994495
672,1456704159587457,0.08283451967398922,0.03157662534389587,0.05967774643953789
673,1456704159609410,0.08111957095760075,0.03570689857191054,0.05831968386439517
674,1456704159626249,0.07705084508664566,0.038053107630011525,0.054978004972631674
675,1456704159647448,0.07021086698312795,0.0381669760120634,0.050653413583242914
676,1456704159677621,0.060734055106413366,0.036058608056955314,0.04604418705997984
677,1456704159686587,0.049469973672664876,0.032166915516760104,0.04143961495320292
678,1456704159707691,0.037711689133433535,0.027175007875015575,0.03684196325363687
679,1456704159729632,0.026624358543572976,0.021746803201628907,0.03214738643256635
680,1456704159746139,0.01670429961582619,0.01630314205513035,0.0272697446740619
681,1456704159767383,0.007590636639866467,0.010946828625100196,0.02219294684729526
