,timestamp,emg1,emg2,emg3,emg4,emg5,emg6,emg7,emg8
0,1456704146278507,0.0,0.008452557820266994,0.008051534525888226,0.04489063653168779,0.004557665999652716,0.0,0.0,0.007179197727794404
1,1456704146278507,0.016918042178280263,0.03954750994817135,0.032058724173281206,0.058917929171983005,0.021910440716318823,0.035596049927151964,0.014714545308648888,0.017626866148659003
2,1456704146278507,0.03402649770573518,0.07054490886188093,0.05638104875594567,0.07189776647961624,0.03912168357331078,0.07075571315556413,0.029828715754491617,0.027897652867022442
3,1456704146278507,0.051100993809497466,0.10102260304736721,0.08072759762678558,0.08383745956998374,0.0559899771034936,0.10499212612758421,0.0451432594231457,0.03791398624461485
4,1456704146280508,0.06792409366572454,0.1305736037328105,0.10481133877601656,0.09475163802835147,0.07232293539674213,0.1378494283535676,0.06046345416100214,0.047603890119910154
5,1456704146280508,0.08429078994100886,0.15881545325186008,0.12835491514898098,0.10466099782537178,0.08794160883310903,0.1689148153110486,0.07560402696677518,0.056902582960508416
6,1456704146283508,0.10001325985826053,0.18539877179753514,0.15109602272870204,0.11359116480705461,0.10268447579634839,0.19782872294603704,0.0903931385078169,0.06575377447818713
7,1456704146283508,0.11492470921599802,0.21001475992123939,0.1727922975996599,0.12157170507280321,0.11641091890531158,0.22429288913131534,0.10467538726289324,0.07411063747171524
8,1456704146288704,0.12888220364070227,0.23240146547419388,0.19322568639720117,0.1286353114868161,0.1290041006486487,0.24807614341530151,0.11831386525794121,0.08193645855573183
9,1456704146288704,0.1417684663443951,0.25234865308238086,0.212206292461526,0.1348171924916887,0.14037315964438157,0.26901784681757956,0.1311913417148483,0.08920498566908774
10,1456704146298721,0.15349269610995164,0.26970115267062167,0.2295756797238891,0.14015468275882131,0.15045465455690568,0.28702897473929195,0.1432106855534816,0.09590049868548944
11,1456704146298721,0.16399051062742823,0.2843606131519946,0.24520958612020438,0.14468708230914182,0.1592132048091631,0.30209092929193476,0.15429466426515576,0.1020176350041913
12,1456704146303706,0.1732231460828597,0.29628564101185667,0.25901996106722774,0.14845571112082148,0.1666413186794923,0.3142522686461182,0.16438526911172105,0.1075610029401711
13,1456704146303706,0.18117605539759313,0.30549035694041804,0.27095621439134004,0.15150414269992962,0.17275844380326122,0.32362361142258433,0.17344271601583625,0.11254460958443402
14,1456704146320520,0.18785705401543415,0.31204145962074425,0.2810055635365626,0.15387855553999374,0.17760930592080332,0.3303709971179156,0.1814442626375441,0.11699111786648554
15,1456704146320520,0.19329416066197255,0.3160539452458825,0.28919240012271763,0.15562811641010527,0.18126161922774658,0.33470798836128207,0.18838296677961325,0.12093093583939152
16,1456704146328221,0.19753326521815573,0.3176856856901034,0.2955766589410084,0.15680528702012342,0.1838032650636193,0.33688682370672,0.1942664906627978,0.12440113693356494
17,1456704146328221,0.2006357298267313,0.317131101191306,0.30025124074914605,0.1574659386578067,0.1853390473107593,0.33718896818908217,0.19911603158332178,0.12744421683743842
18,1456704146333915,0.2026760013448208,0.31461416618650695,0.30333859428030724,0.15766918406273878,0.18598713890132915,0.3359154297717793,0.2029654300865839,0.1301067095735826
19,1456704146333915,0.20373928820109047,0.3103809748290646,0.30498659692633556,0.15747689040436025,0.18587533232882747,0.33337719143615563,0.20586046796644297,0.1324377066428755
20,1456704146350000,0.20391933113235852,0.30469209562527205,0.30536388929226727,0.15695289558744388,0.18513719850320706,0.3298860580077882,0.20785832148869113,0.1344873394995341
21,1456704146350000,0.2033162726894736,0.29781497203147267,0.30465481614854995,0.15616198643366944,0.18390824447757834,0.3257461500199276,0.2090270870292124,0.13630528880004258
22,1456704146395725,0.2020346092078426,0.2900166502768125,0.3030541120164051,0.15516871102046326,0.18232214785030929,0.3212462041139735,0.20944525289565222,0.13793937337779308
23,1456704146395725,0.20018120110938556,0.28155710310175275,0.30076146232955503,0.1540361047023389,0.18050714304984578,0.3166527719183339,0.20920096196112703,0.13943425521727054
24,1456704146396725,0.1978633258940299,0.2726833653376481,0.29797608350149013,0.15282441758037774,0.17858264481415526,0.31220436409332986,0.20839091534233928,0.14083028292544636
25,1456704146396725,0.19518677451288693,0.26362462742386844,0.2948914865520007,0.15158993259903453,0.1766562080560432,0.3081065752304114,0.2071188223594818,0.14216249013897925
26,1456704146398725,0.1922540072754984,0.25458836605261664,0.29169059584745144,0.1503839490022282,0.17482092694340276,0.30452824327570344,0.20549338750504323,0.14345976506381466
27,1456704146398725,0.18916239790750763,0.24575753347798213,0.2885413771435378,0.14925197655858702,0.17315336188266997,0.30159872155446976,0.20362589930185626,0.14474420710872574
28,1456704146399724,0.1860026035405933,0.23728878076861123,0.2855930958303554,0.1482331498423531,0.17171205472258896,0.29940634539378386,0.2016275245406909,0.1460306828771275
29,1456704146399724,0.18285710336516375,0.22931165709843024,0.2829732855063418,0.1473598368947513,0.17053665889963146,0.2979981455582359,0.19960642058029857,0.14732658763249196
30,1456704146409010,0.17979895034286983,0.2219287037546921,0.2807854619693811,0.1466573898582963,0.1696476805831604,0.2973808073600189,0.19766477633631646,0.14863181290323255
31,1456704146409010,0.1768907806153386,0.21521634102615786,0.2791075795090071,0.146143976304418,0.1690468060918467,0.29752282180559103,0.1958958958441165,0.1499389201373655
32,1456704146417318,0.17418412312522924,0.20922642362569013,0.27799121236527774,0.14583044793691702,0.1687177839660467,0.29835773988682246,0.19438145341048305,0.15123352599851633
33,1456704146417318,0.1717190436660254,0.20398831478441692,0.27746145694712615,0.14572024414552318,0.16862783214662286,0.2997884190748061,0.19318906489380355,0.15249491170977747
34,1456704146424319,0.16952414064736054,0.19951130502288542,0.2775175711567619,0.14580937077960818,0.16872953951281797,0.30169212851856486,0.19237031684682665,0.1536968680483342
35,1456704146424319,0.1676168865506261,0.19578718998692085,0.27813437370840366,0.14608651873739428,0.16896321879014217,0.3039263498292468,0.19195937037305014,0.1548087759762433
36,1456704146439527,0.16600428521280758,0.1927928359130198,0.2792644095770182,0.14653338810945013,0.1692596472917847,0.3063350787716164,0.19197222163080743,0.15579690404498533
37,1456704146439527,0.16468379643676523,0.1904926053594553,0.2808408529326941,0.14712526871372433,0.1695431098667618,0.3087554087816808,0.19240666551030575,0.15662588347357576
38,1456704146447528,0.16364446898464532,0.18884057468765172,0.2827810766531239,0.14783190239061395,0.16973463786327325,0.3110241605296268,0.19324297298932402,0.15726030573472685
39,1456704146447528,0.16286822090208955,0.18778252294232856,0.2849907734828294,0.14861861918825772,0.16975532049225323,0.31298430641676744,0.19444525418722286,0.1576663787513066
40,1456704146453533,0.1623312087272243,0.18725769793347935,0.2873684689722014,0.14944770442608804,0.16952955722167087,0.31449093254629956,0.19596344018033224,0.15781357578517557
41,1456704146453533,0.16200522737903175,0.18720037700393774,0.28981022609489593,0.1502799244963179,0.1689881294968017,0.31541650541970423,0.19773578189696678,0.15767621348461786
42,1456704146469527,0.16185907708865796,0.18754124425213137,0.29221431849864543,0.15107611995613673,0.16807099451545635,0.3156552689431466,0.19969173819544828,0.157234899951463
43,1456704146469527,0.16185982871218985,0.18820860345024268,0.2944856522949259,0.15179876364917894,0.16672972805429526,0.3151266591288198,0.20175510875944735,0.15647779747258617
44,1456704146477544,0.16197392384363782,0.1891294413238874,0.2965397410312455,0.152413378517815,0.16492955504313278,0.3137776612594272,0.2038472598742235,0.1554016478493207
45,1456704146477544,0.16216806614554857,0.1902303571856182,0.29830607280053106,0.15288971878937468,0.16265091113002286,0.31158405493828845,0.20589029267767978,0.15401251597700755
46,1456704146484528,0.16240989073664447,0.1914383833507837,0.2997307448427988,0.15320264506760825,0.15989049233900196,0.3085505273609253,0.20781001329332047,0.15232622186505282
47,1456704146484528,0.16266842571232773,0.19268173067275116,0.30077828342848145,0.15333266600179338,0.15666177661015435,0.3047096979147106,0.20953857841457993,0.15036844493436224
48,1456704146508538,0.16291437234513834,0.19389049851303047,0.3014326200221915,0.15326616235662985,0.1529950242343593,0.30012016564571525,0.21101670703712713,0.14817448883439277
49,1456704146508538,0.1631202320463833,0.19499738650174175,0.3016972483152128,0.15299533694110387,0.14893677079629214,0.2948637356393376,0.2121953722959073,0.14578869724370544
50,1456704146509529,0.16326031204422636,0.19593844155587278,0.30159461985545516,0.1525179406945749,0.1445488253013235,0.2890419993859793,0.2130369168349703,0.14326352722173277
51,1456704146509529,0.16331065252637153,0.19665387271565854,0.3011648398001004,0.15183682013299324,0.13990679658011854,0.2827724571631614,0.21351556764695756,0.14065831784171598
52,1456704146513531,0.16324892834034302,0.1970889627194016,0.30046371134889155,0.1509593265016192,0.13509819666218986,0.27618438693469116,0.21361736368039444,0.13803781964055395
53,1456704146513531,0.16305438027191035,0.1971950883212484,0.2995601706520644,0.149896626711518,0.13022019525475187,0.269414675598954,0.21333955433466328,0.13547055867989902
54,1456704146529062,0.16270782233171002,0.1969308322781813,0.2985331716570611,0.14866295756940817,0.12537710891836465,0.26260382038906094,0.21268957139842024,0.133027100208508
55,1456704146529062,0.16219175538207092,0.1962631431123628,0.297468123984634,0.14727486391596045,0.12067770163506522,0.2558922723739229,0.21168370700578906,0.1307782643892375
56,1456704146537556,0.16149059931812648,0.19516848574548884,0.2964530383891884,0.14575045547198623,0.11623236269816556,0.2494172338660537,0.2103456389185074,0.12879333880618826
57,1456704146537556,0.16059103884479808,0.19363392324318576,0.2955745696790081,0.1441087068310704,0.11215022535630291,0.2433099518880974,0.20870493506499438,0.1271383300389372
58,1456704146543563,0.15948246114902181,0.1916580657940045,0.29491415399328924,0.14236881522422193,0.10853629716964756,0.2376934875357038,0.20679564881031537,0.1258742974994227
59,1456704146543563,0.1581574495136423,0.18925181601551166,0.29454441879842713,0.14054962805874444,0.10548868162741741,0.2326808967108767,0.20465509053045014,0.12505581337396093
60,1456704146559559,0.1566122901779121,0.18643884072597777,0.2945260082549752,0.13866915721471015,0.10309597048053927,0.22837373591518165,0.20232283189927877,0.12472958795854787
61,1456704146559559,0.15484745084108265,0.18325571674189425,0.2949049217131762,0.13674420113719943,0.10143487752028169,0.22486080972400482,0.19983996748267946,0.12493328976059866
62,1456704146567558,0.15286799263923717,0.1797517260045701,0.29571041925588737,0.13479009010539253,0.10056817485731498,0.22221709944297796,0.1972486271466239,0.12569458076110873
63,1456704146567558,0.15068387877889744,0.1759882984937799,0.2969535166483115,0.13282055592476008,0.10054298579986928,0.22050283969526394,0.1945917081212806,0.12703038338265177
64,1456704146574559,0.14831014194601838,0.1720381112155182,0.29862607571683664,0.13084771344864043,0.10138948045894769,0.21976272943431482,0.1919127793198133,0.1289463936771771
65,1456704146574559,0.14576687155592336,0.16798385394891352,0.30070048900206836,0.12888213308958898,0.10312000805309246,0.22002528101081298,0.18925609884606004,0.13143685003011796
66,1456704146588847,0.14307898575485514,0.16391667960235098,0.3031299553186916,0.1269329794385063,0.10572868536744295,0.22130233130088367,0.18666667453521416,0.1344845578204434
67,1456704146588847,0.1402757667357763,0.1599343725813983,0.3058493478397533,0.12500818941231945,0.10919144603178597,0.22358875204879433,0.18419028729432352,0.13806116026672274
68,1456704146596560,0.13739016127045553,0.15613928454297588,0.308776688948109,0.12311466490007651,0.11346653911108927,0.22686238926332558,0.181873390400222,0.14212763511165571
69,1456704146596560,0.13445787562797468,0.15263609321458146,0.311815256094122,0.1212584603594488,0.11849544717562077,0.23108423865453587,0.17976279835374714,0.1466349855161782
70,1456704146605561,0.1315163176431851,0.14952943462062962,0.31485633434031973,0.11944495388400621,0.12420417722524134,0.23619884497774152,0.17790509497074158,0.15152508332356926
71,1456704146605561,0.12860345177169838,0.1469214501210387,0.31778259910889844,0.11767899874531301,0.13050486853906254,0.24213491187821418,0.17634573046022137,0.1567316196734345
72,1456704146620355,0.12575663222240652,0.1449092866159258,0.3204720670626914,0.11596505921197808,0.13729766181067732,0.24880612453877096,0.17512783485741526,0.16218112638622081
73,1456704146620355,0.12301146825269446,0.14358259303248627,0.3228025040704277,0.11430733804650905,0.14447278021748908,0.2561122102244601,0.17429082790730505,0.16779404735413436
74,1456704146634864,0.12040076261696896,0.14302106450763044,0.3246561271937806,0.11270990315120541,0.15191277991552693,0.2639402815362731,0.17386893325820268,0.17348585448709733
75,1456704146634864,0.11795355548100875,0.14329209347138497,0.3259243837879656,0.11117681757600098,0.15949493111572005,0.27216651583776497,0.17388970634580866,0.1791682164406904
76,1456704146635865,0.11569430384249361,0.1444485925507092,0.32651254745142716,0.1097122706801241,0.16709369059509796,0.28065821653755685,0.17437267446222754,0.18475024171171553
77,1456704146635865,0.11364222839707404,0.14652705711777803,0.3263438560112756,0.10832070004098492,0.1745832245098554,0.2892762775744599,0.17532817573864456,0.19013982584730432
78,1456704146648865,0.11181086049113341,0.14954593392223287,0.3253629432575625,0.10700688672407332,0.1818399395026336,0.29787803638402843,0.17675647195986452,0.19524513100370142
79,1456704146648865,0.11020781667354737,0.1535043560568279,0.3235383783747617,0.10577600338767557,0.18874498008345056,0.30632045661204976,0.1786471964321601,0.19997621830978587
80,1456704146656879,0.10883481753162853,0.15838129710016974,0.32086419909317926,0.10463359668518395,0.19518664913850114,0.31446352977606623,0.18097918367679353,0.20424684266644305
81,1456704146656879,0.10768795390482179,0.16413519369818214,0.31736038026090096,0.10358549289790009,0.2010627064152667,0.3221737293181765,0.18372071147892358,0.2079764018786086
82,1456704146665867,0.10675818814893955,0.17070408538957058,0.3130722199147454,0.10263762655788633,0.20628249793229775,0.3293273098428221,0.1868301640887443,0.21109200398431266
83,1456704146665867,0.10603206049028104,0.17800631575175882,0.3080686737194585,0.10179580099895968,0.21076886526202498,0.3358132433130764,0.19025709969475665,0.21353058349912155
84,1456704146679865,0.10549255278044872,0.18594182407222723,0.30243973552490927,0.10106539386742847,0.21445977537082167,0.3415356275754524,0.1939436831126172,0.21524096893962769
85,1456704146679865,0.10512004855419207,0.19439403323270268,0.2962930243114321,0.10045102111180368,0.21730960436908106,0.346415469182346,0.19782643046793974,0.2161857862836673
86,1456704146686866,0.10489332358612061,0.2032323111689604,0.28974976964794097,0.09995617363760982,0.2192900123634747,0.3503918081200473,0.20183820406820233,0.21634307653279797
87,1456704146686866,0.1047905075815059,0.21231495177646673,0.28294039430395784,0.09958284367800482,0.22039036484503874,0.3534222080274498,0.20591038727815777,0.2157075112877542
88,1456704146693871,0.10478997315848868,0.22149259174349378,0.2759999017035365,0.0993311622317383,0.22061768062732975,0.3554826782397512,0.20997515635367667,0.21429111122319408
89,1456704146693871,0.10487112712703292,0.23061196334582892,0.26906329714633065,0.09919907263993455,0.21999610788933827,0.3565671166632981,0.21396774745549718,0.21212340770380986
90,1456704146708872,0.10501509652131646,0.23951988327826698,0.2622612842524395,0.09918206721362924,0.21856594702922183,0.35668636187744285,0.21782859694457998,0.20925102914419072
91,1456704146708872,0.10520531576970292,0.24806738151381405,0.2557164604206559,0.09927301394328758,0.21638225519138937,0.3558669228973418,0.22150521844503746,0.2057367317949051
92,1456704146716882,0.10542803037828014,0.25611386522393864,0.2495401881929496,0.09946209899251494,0.2135130817412932,0.35414942537824506,0.22495367292639687,0.2016579286675231
93,1456704146716882,0.10567273495059523,0.26353118707685513,0.24383025692097923,0.0997369065135212,0.21003739301655283,0.35158679059178144,0.22813948822308702,0.19710480400213307
94,1456704146726449,0.10593255787634258,0.2702074562654078,0.23866938193819248,0.10008264862161871,0.20604275176803327,0.34824216751864856,0.23103790434941984,0.1921781296477097
95,1456704146726449,0.10620459241651638,0.27605041148162907,0.23412452410853832,0.10048254656863663,0.20162282958659503,0.3441866746317047,0.23363338319205848,0.1869869124191695
96,1456704146740092,0.10649015941169401,0.28099017448941316,0.23024695982240262,0.10091835310003458,0.19687484632515384,0.33949705622785564,0.2359184256923126,0.18164599239899945
97,1456704146740092,0.10679497750242717,0.28498121114960107,0.22707299769709252,0.10137099664318854,0.19189703476488118,0.3342533830013896,0.23789184486150158,0.17627368640740118
98,1456704146746890,0.10712921496908842,0.28800334033409286,0.22462522139537225,0.10182131717887895,0.1867862143992005,0.3285369086597903,0.23955670207551644,0.17098953762108982
99,1456704146746890,0.10750739912302798,0.29006167371562935,0.2229141257444945,0.10225085051277837,0.18163553578981645,0.32242814796901526,0.2409181216983255,0.16591220004831703
100,1456704146754088,0.10794816032762641,0.2911854619815387,0.22193999824029245,0.10264260887428531,0.17653244240448743,0.31600519615517836,0.24198118242939878,0.16115746197121203
101,1456704146754088,0.10847378830490056,0.29142594360869173,0.22169489092727912,0.1029818101236892,0.17155689446180644,0.30934228527180546,0.24274906231953056,0.1568363969158392
102,1456704146771099,0.10910958109114226,0.29085339380686914,0.22216454626177817,0.10325652565003035,0.16677990245418678,0.302508575460054,0.2432215888774715,0.15305361995086675
103,1456704146771099,0.10988297432884059,0.2895536282412747,0.22333018400714963,0.10345823877477717,0.16226242002066493,0.2955671998257578,0.24339431377305665,0.1499056187068725
104,1456704146786112,0.11082245204029284,0.28762423309021684,0.22517010020471087,0.10358232138383673,0.15805464235161107,0.28857460138713575,0.2432581939465916,0.1474791248769757
105,1456704146786112,0.11195625937342744,0.2851707810472087,0.22766105151182997,0.10362844423077923,0.1541957434365118,0.2815802026586964,0.24279991666954293,0.1458494951193925
106,1456704146788103,0.11331096056844289,0.28230325741599993,0.2307794020898232,0.10360093885240226,0.15071406252635372,0.2746264332457254,0.2420028551540791,0.14507908162682429
107,1456704146788103,0.11490990763968821,0.2791328649295689,0.23450201650607339,0.10350912841198176,0.1476277206318065,0.26774911877080254,0.2408485880008636,0.14521559621485938
108,1456704146799893,0.11677170331757031,0.27576930936862043,0.238806902052412,0.1033676403413832,0.14494561634567263,0.26097821139095884,0.23931886535111732,0.14629050691633486
109,1456704146799893,0.11890875377293679,0.27231860607891145,0.24367362956549135,0.10319670472639195,0.14266872163393254,0.2543388188996062,0.23739785909941044,0.14831753951524235
110,1456704146807109,0.12132601108812048,0.2688814038243885,0.24908358092196273,0.10302243070815056,0.14079157820812924,0.24785246782453646,0.2350744955653257,0.1512913732980915
111,1456704146807109,0.12401999922862522,0.26555179998337075,0.2550200793261375,0.10287704251553989,0.13930388975774222,0.24153851663264228,0.2323446440066777,0.15518661969652783
112,1456704146814091,0.12697819871921362,0.26241661204698064,0.2614684524819559,0.10279905056556038,0.1381921179870273,0.23541561640991737,0.22921293803542128,0.1599571646063463
113,1456704146814091,0.13017883801941912,0.2595550623436694,0.2684160521826257,0.10283333208360407,0.13744101489658744,0.22950310126763018,0.2256940540573886,0.16553594763511864
114,1456704146829095,0.13359110967028653,0.25703881554157654,0.2758522047666957,0.10303109835117248,0.13703504465393537,0.22382218696496498,0.22181335884302433,0.17183524599702427
115,1456704146829095,0.13717579926264106,0.25493228011670543,0.28376800507312283,0.10344973050631712,0.1369596560029612,0.21839686765811492,0.21760693643933765,0.17874752715945733
116,1456704146837460,0.1408862862810654,0.2532930567754859,0.29215581299945126,0.10415247094430168,0.13720236734924504,0.21325442691916716,0.21312107460633067,0.1861469305935989
117,1456704146837460,0.14466985391232978,0.25217240571627464,0.30100829700695914,0.10520795941977015,0.13775363459378437,0.20842551974648052,0.20841132340589902,0.19389142865548137
118,1456704146846318,0.14846923791380812,0.25161561749325334,0.3103169200664878,0.10668960014948829,0.1386074901926131,0.20394383208544503,0.20354125238559506,0.20182569255728922
119,1456704146846318,0.15222435107026855,0.2516621992965343,0.32006987608840703,0.10867474121367807,0.1397619634585079,0.19984537147662648,0.19858104121581321,0.2097846497572702
120,1456704146860318,0.15587412862934716,0.25234581408798357,0.3302496131861658,0.11124364359126702,0.14121930712179112,0.19616747799528986,0.19360603598614187,0.2175976680523485
121,1456704146860318,0.1593584441705704,0.2536939287566508,0.34083017250738823,0.11447821442873886,0.14298605864241457,0.19294766746200342,0.1886953824911376,0.22509324635098288
122,1456704146867421,0.16262004553627335,0.25572714777814937,0.35177461122907444,0.11846048045023014,0.14507295769527298,0.19022242737580763,0.1839308124432063,0.23210404107859497
123,1456704146867421,0.16560645814180888,0.25845824103834014,0.36303278093775376,0.12327079216586767,0.14749472828497556,0.1880260760797653,0.17939561770206372,0.23847201880315896
124,1456704146874455,0.1682717964134134,0.2618909187532226,0.37453971377769624,0.12898578186494006,0.1502697197285721,0.18638976888645928,0.17517380853011652,0.2440535044810888
125,1456704146874455,0.1705784109528584,0.26601845524887646,0.38621483235463705,0.1356761351196498,0.1534193874711576,0.18534070041695944,0.17134941923188182,0.24872388788273828
126,1456704146889455,0.1724982809625452,0.27082230593928597,0.39796214598580865,0.14340425689936323,0.15696758410015038,0.18490152052160266,0.16800590116966646,0.25238175110447275
127,1456704146889455,0.1740140493246743,0.27627088494079743,0.4096715272330682,0.15222191328844484,0.16093962760362673,0.18508995746269413,0.16522552974573917,0.25495218926934643
128,1456704146896321,0.17511960800859133,0.282318666527262,0.42122108338826963,0.1621679185440147,0.16536112397966782,0.1859186259969082,0.16308874720170793,0.2563891322520449
129,1456704146896321,0.17582018047518858,0.2889057463004527,0.43248056098302623,0.173265929977658,0.17025654743110918,0.1873949871976905,0.16167336534983795,0.2566765491855185
130,1456704146906423,0.17613190235816528,0.2959579582096215,0.44331566255064125,0.18552241938053096,0.17564761918956787,0.18952142241093412,0.16105356132238077,0.25582850782108674
131,1456704146906423,0.17608095078080033,0.30338760161289446,0.45359310924660956,0.19892490645737235,0.1815515645005404,0.19229538892142195,0.16129861596157938,0.2538881319414786
132,1456704146920268,0.1757023037155067,0.3110947972789513,0.4631862255164896,0.2134405528641669,0.1879793543966445,0.19570964024031767,0.16247137013022744,0.25092554666717853
133,1456704146920268,0.1750382243686987,0.3189694676512781,0.47198074235304954,0.22901521367428096,0.1949340490394983,0.19975251472682776,0.1646264115131232,0.24703494385672808
134,1456704146927269,0.17413656894856902,0.3268939206938858,0.4798804469414598,0.24557303034799385,0.20240935639265925,0.20440831402443518,0.1678080521951607,0.24233094319330453
135,1456704146927269,0.17304901427186417,0.3347459954949748,0.48681230313818064,0.26301663752757803,0.21038851016728496,0.20965780002263437,0.17204820518091257,0.23694445401415876
136,1456704146934459,0.17182929364194077,0.34240269167388304,0.4927307505338559,0.28122804750775077,0.21884355455556243,0.21547883292818165,0.17736430366779163,0.2310182487183508
137,1456704146934459,0.1705315147320044,0.3497441561894886,0.4976210242001467,0.30007026301710255,0.2277350985376301,0.2218471559166442,0.18375742530926534,0.22470244530484432
138,1456704146949308,0.16920861678364568,0.35665785098584485,0.5015014611688002,0.3193896497954916,0.23701257737988954,0.22873731117174292,0.19121078410469375,0.21815007606760758
139,1456704146949308,0.16791101172652395,0.36304268162036596,0.5044248307616042,0.33901908243630197,0.24661504541533805,0.23612365568722898,0.19968873504332488,0.21151290258983366
140,1456704146957528,0.1666854429781268,0.36881283477028914,0.50647873864357,0.3587818565313168,0.25647252040219154,0.2439814340390907,0.20913640775820624,0.204937624407697
141,1456704146957528,0.1655740797662188,0.37390105589038375,0.5077851326148819,0.37849632153235824,0.2665078893585428,0.25228785653042096,0.2194800558387213,0.19856260978696746
142,1456704146974310,0.16461384363831028,0.3782611059108633,0.5084989153538838,0.3979811264340173,0.2766393570795368,0.26102312496972996,0.230628180524749,0.1925152442497123
143,1456704146974310,0.16383594761454573,0.381869176117463,0.5088056658156663,0.41706089964441156,0.2867833740615609,0.27017134703503304,0.242473453932026,0.18690994861780014
144,1456704146980311,0.1632656243660791,0.38472411657160516,0.5089184792044463,0.4355721263146565,0.2968579299334077,0.27972128481671743,0.25489542251089253,0.1818468730072756
145,1456704146980311,0.16292202184382504,0.3868464431895811,0.5090739347994617,0.45336895039117453,0.30678605263583053,0.28966689219130065,0.2677639186409836,0.1774112375494903
146,1456704146987311,0.16281824386588123,0.38827621608620244,0.5095271911649687,0.47032861262142683,0.3164993229700865,0.3000076002693672,0.2809430513794867,0.1736732704218573
147,1456704146987311,0.16296150988339264,0.3890699925941327,0.5105462143110764,0.4863562387117332,0.325941203153576,0.3107483013404187,0.29429558971538167,0.17068868303962573
148,1456704147003457,0.16335341009658075,0.38929712268268435,0.5124051823278497,0.5013887153081398,0.335069981108395,0.32189896914320393,0.3076875018280735,0.16849960985015686
149,1456704147003457,0.16399024462170586,0.38903567696261276,0.515377167134439,0.5153974234131786,0.34386113990367817,0.33347385985727107,0.32099238644365025,0.16713592337237054
150,1456704147009449,0.1648634561008521,0.38836830407712447,0.5197262488181856,0.5283896133121508,0.3523089696035944,0.34549027066903093,0.33409553507865775,0.16661681924956862
151,1456704147009449,0.16596018347641878,0.387378311860917,0.525699262060506,0.540408193723434,0.3604272481011183,0.3579668717608712,0.3468973906741422,0.1669525537366075
152,1456704147017259,0.16726396859912795,0.3861462389168817,0.533517409294155,0.5515297065082587,0.3682488349384994,0.3709216503346818,0.35931621310410705,0.16814620707623218
153,1456704147017259,0.16875563244832448,0.3847471236386076,0.5433680049720011,0.5618603295354121,0.37582406460000417,0.3843695115488654,0.3712898272703496,0.17019534666360434
154,1456704147026261,0.1704143098126604,0.3832485998160539,0.5553966376515521,0.571529924577478,0.3832179095953789,0.39831959283863,0.38277641003299356,0.17309348287957133
155,1456704147026261,0.1722186026120858,0.38170986518552097,0.5697000398287043,0.5806843757869308,0.39050599716391177,0.4127723816368147,0.39375434982200985,0.17683124584068108
156,1456704147040426,0.1741477943831001,0.38018148762113746,0.5863199304757977,0.589476656545608,0.3977696737970002,0.4277167737112285,0.4042212658976816,0.18139724888319902
157,1456704147040426,0.1761830646834678,0.37870594559522025,0.6052380534043236,0.5980571727520866,0.40509040117592504,0.44312724749780097,0.41419228889836796,0.1867786337762888
158,1456704147047160,0.17830864382281125,0.3773187631031254,0.6263726024684265,0.6065639748251159,0.41254383457837707,0.45896134362861785,0.4236976899080073,0.19296131306410408
159,1456704147047160,0.1805128429928863,0.37605009596863775,0.6495762218023046,0.6151134274580431,0.4201939735202853,0.4751576288500151,0.4327799357405499,0.19992993835678285
160,1456704147062163,0.1827888779576632,0.3749266368907726,0.6746357915137481,0.623791875838037,0.4280877749864283,0.49163429856783625,0.44149026327022206,0.20766762914967235
161,1456704147062163,0.1851353872036184,0.37397371478555325,0.7012742254800144,0.6326487603276734,0.43625058304581,0.5082885400439854,0.44988488539531907,0.2161554949093051
162,1456704147069214,0.18755655110480338,0.37321746864161914,0.7291544764699182,0.6416915307072678,0.4446826611963745,0.5249967444566912,0.45802094504227825,0.22537197594590813
163,1456704147069214,0.19006176223342625,0.37268697393419714,0.7578858397063467,0.6508826064635566,0.4533570220321042,0.5416156246270094,0.4659523398345945,0.23529201819307582
164,1456704147077505,0.1926648651872597,0.37241617931697013,0.7870324757207188,0.6601385195356635,0.46221864506693566,0.5579842648920252,0.47372557371008556,0.24588608673270565
165,1456704147077505,0.19538304446587257,0.3724454726348294,0.816123869921485,0.6693312601254299,0.4711850742116305,0.5739270943095454,0.4813758379047211,0.25711902190624975
166,1456704147087163,0.19823546930078145,0.372822662573299,0.8446667501124577,0.6782917289838596,0.48014830116257357,0.5892577271030522,0.488923544468423,0.2689487609968202
167,1456704147087163,0.20124180699691988,0.3736031718710774,0.8721578286125516,0.6868150870939284,0.4889777705388837,0.6037835488607161,0.4963715154939428,0.2813249846244486
168,1456704147100467,0.20442070376487478,0.37484930998635324,0.898096665518868,0.694667696264599,0.4975242917647133,0.6173108470915684,0.5037029842880753,0.2941877783460831
169,1456704147100467,0.20778831478916235,0.3766286119727618,0.9219980180565823,0.7015952804009409,0.5056246278996874,0.629650214628178,0.5108805125865694,0.3074664059467941
170,1456704147107504,0.21135695078773226,0.37901135602900665,0.9434032490614908,0.7073319206967007,0.5131065605787855,0.6406219261351321,0.517845890050912,0.3210782753026892
171,1456704147107504,0.21513390065661106,0.3820674694655092,0.9618906165519824,0.7116095149323183,0.5197942765577914,0.6500610108519143,0.524521069597455,0.33492816518541857
172,1456704147122178,0.2191204873408959,0.3858630863413766,0.9770844343527902,0.7141673501833014,0.5255139414114465,0.6578217978659615,0.5308101931068858,0.3489077908598849
173,1456704147122178,0.22331140955394,0.39045702651340747,0.988663137930884,0.7147614458599236,0.5300993022819205,0.6637817699711638,0.5366027464727359,0.36289581364970336
174,1456704147129180,0.22769440887260284,0.39589742626060187,0.9963662341526028,0.7131733314342682,0.5333971144752587,0.6678446253394159,0.5417778310900799,0.3767584248111287
175,1456704147129180,0.2322502810206727,0.4022186766109086,1.0,0.7092179480582239,0.5352721511070682,0.669942521504306,0.5462094578887807,0.3903506352625036
176,1456704147137216,0.23695322737655858,0.4094387460598642,0.9994416950304761,0.7027504189759017,0.535611564050948,0.6700375622412622,0.5497726776898979,0.4035183679951294
177,1456704147137216,0.24177152201804522,0.4175569145441707,0.9946420584373118,0.6936715207766954,0.5343284381019848,0.668122662730467,0.5523502660773769,0.416101385851953
178,1456704147146189,0.2466684535034778,0.42655193847356526,0.985625990451447,0.6819317810292347,0.5313644974711613,0.6642219526102181,0.5538395829313182,0.4279370119746992
179,1456704147146189,0.25160348947175953,0.43638067826029714,0.9724914641023195,0.6675341866193635,0.5266920156005458,0.6583908203498637,0.5541591412722985,0.438864526447136
180,1456704147160189,0.25653360219023935,0.44697721391451917,0.9554067621851905,0.6505354882681237,0.5203149851375972,0.650715582005818,0.5532543840676678,0.4487300517292154
181,1456704147160189,0.261414680516135,0.4582524453438669,0.9346060878170828,0.6310460492523471,0.512269534874165,0.6413126335472352,0.5511022122158873,0.4573916661182845
182,1456704147167209,0.2662029400494499,0.4700941499544921,0.9103835631321926,0.609228163584093,0.5026235065528097,0.630326879343614,0.547713924742087,0.4647244102358996
183,1456704147167209,0.27085623588200364,0.4823674726698687,0.8830857117555536,0.5852928128100974,0.4914750947951954,0.617929244904074,0.5431363821837689,0.47062480024307884
184,1456704147182196,0.2753351898994169,0.4949158485305027,0.8531027060777232,0.559494945252838,0.47895051895577895,0.6043131678769552,0.5374513434830606,0.47501447121829826
185,1456704147182196,0.27960407005513666,0.5075623976919132,0.820858825210958,0.5321274882381185,0.4652007933031334,0.5896900874790212,0.5307730356700008,0.47784266482461535
186,1456704147191191,0.28363139675748567,0.5201118842785429,0.786802605358935,0.5035143722884351,0.4503977401732595,0.5742840847232654,0.5232441025579271,0.47908742480151306
187,1456704147191191,0.2873902926529158,0.532353375382309,0.7513970833999327,0.4740028422447148,0.43472942640976286,0.5583259317768174,0.5150301657561926,0.47875551383291826
188,1456704147197191,0.29085863012466745,0.5440637411561536,0.7151104151274491,0.4439552974741023,0.4183952039163671,0.5420468651122722,0.5063133268974064,0.476881166265724
189,1456704147197191,0.2940190585373076,0.5550120893314366,0.678407035916623,0.4137408878260196,0.4016005231706372,0.5256724020559793,0.49728502686423914,0.473523846599436
190,1456704147206218,0.29685899909660857,0.5649651463829184,0.6417394320737482,0.38372710396435356,0.38455168534928413,0.5094164949636011,0.48813872927177543,0.4687652277966473
191,1456704147206218,0.29937067076942986,0.5736935025550949,0.60554052598974,0.3542716203305363,0.36745071184306166,0.4934762849635581,0.47906289248316175,0.4627056426890571
192,1456704147220213,0.30155116050608693,0.5809785350271428,0.57021667164138,0.325714651403565,0.3504905280592518,0.47802768474957574,0.47023463258203435,0.45546027479509416
193,1456704147220213,0.3034024920885242,0.586619722053628,0.536141296056448,0.29837205428123853,0.3338506588331665,0.46322197905902923,0.4618143732335531,0.4471553351855091
194,1456704147227198,0.30493160437225975,0.5904419787645083,0.5036492615853546,0.2725293557880057,0.3176936002559877,0.4491835724954928,0.45394165596908226,0.4379244378684448
195,1456704147227198,0.30615013944148517,0.5923025900598352,0.47303203359301094,0.24843681640133725,0.3021619710354908,0.43600893704970817,0.44673217514818636,0.42790535419043674
196,1456704147242203,0.3070739594047331,0.5920972846987604,0.4445337283960171,0.22630558691160316,0.2873764732411856,0.4237667259976398,0.4402760195533958,0.41723729011046246
197,1456704147242203,0.3077223396949641,0.5897650016520208,0.41834811101058333,0.20630497670631642,0.27343462810056296,0.412498939477621,0.4346370384166142,0.4060587685155387
198,1456704147249203,0.30811682487000197,0.5852909799273637,0.39461662081331567,0.18856082833077442,0.2604102127803197,0.4022229616920331,0.42985318479594786,0.39450610976541267
199,1456704147249203,0.30827979027863617,0.5787079640180662,0.37342751652561124,0.17315497150813805,0.2483533137357,0.3929342509448144,0.42593762341086433,0.38271241336708495
200,1456704147257204,0.30823282338058344,0.5700955080868779,0.3548162296296986,0.16012570940948262,0.2372909245004533,0.38460945527414836,0.4228803499494301,0.3708068807854545
201,1456704147257204,0.3079950956996687,0.5595775205194315,0.3387669784383539,0.14946927333431712,0.22722803606886285,0.3772097400543251,0.42065007809099353,0.3589142910790312
202,1456704147266205,0.3075819172884842,0.5473183027646765,0.32521562627643713,0.14114216858561499,0.21814918232738453,0.3706841380207473,0.4191962063214607,0.34715444035870036
203,1456704147266205,0.3070036467918083,0.5335174191448169,0.3140536937298194,0.13506432086381442,0.21002040442018446,0.3649727645966575,0.4184507666505531,0.3356413862703254
204,1456704147280205,0.3062650849987968,0.5184037809165987,0.3051333820868144,0.13112291662350614,0.20279158583884205,0.36000978614597184,0.41833036892760184,0.3244824124767827
205,1456704147280205,0.3053654246271082,0.502229313129393,0.29827343406480344,0.12917681300210734,0.19639909011416323,0.3557260814160918,0.4187382530588217,0.31377673436367015
206,1456704147287206,0.3042987728908178,0.4852624979532417,0.29326563571909275,0.12906137547468888,0.19076861866809922,0.3520515840618123,0.41956660235153853,0.30361406170059135
207,1456704147287206,0.3030552077892489,0.4677819884621307,0.2898817461801849,0.1305935856054142,0.18581820849796893,0.3489173261529878,0.42069924821864346,0.2940731795717938
208,1456704147304207,0.3016222744309758,0.45007040002041115,0.28788063399875125,0.13357724680256503,0.1814613020053275,0.34625721048965413,0.4220148414751554,0.2852207050862897
209,1456704147304207,0.29998677856694506,0.43240833068266676,0.28701539721067704,0.13780810438221844,0.17760982660122024,0.34400951855495643,0.4233905032103477,0.277110143520477
210,1456704147309207,0.2981367033355559,0.4150686393756186,0.28704024087024027,0.1430786935139164,0.17417720834415515,0.3421181234784188,0.42470590451864293,0.26978131986350107
211,1456704147309207,0.29606307666704174,0.3983110185284906,0.287716882848916,0.14918274325591116,0.1710812175952011,0.3405333495506737,0.4258476627139734,0.2632602122202635
212,1456704147317222,0.2937616497192136,0.38237693313682025,0.2888202670932303,0.15591900272298265,0.16824652610351268,0.339212418520335,0.42671388458152903,0.2575591731711396
213,1456704147317222,0.29123429031264414,0.36748504645514146,0.2901433929599896,0.1630944132631413,0.16560686338349787,0.3381194472003061,0.42721863465170234,0.2526775001729235
214,1456704147332233,0.2884900331169318,0.35382728412840286,0.291501124613542,0.17052661269965777,0.16310669346348974,0.3372249968519701,0.42729606274291515,0.24860230384442342
215,1456704147332233,0.2855457636214179,0.34156568283181954,0.2927329197246469,0.1780458038604358,0.1607023695123947,0.33650520279804075,0.42690389890604086,0.24530961382061936
216,1456704147340234,0.28242654995106414,0.33083013242207676,0.2937044902255829,0.1854960407506328,0.15836274712599052,0.33594052682400577,0.4260260270454644,0.24276564713758425
217,1456704147340234,0.2791656633525318,0.32171706983198156,0.2943084593831723,0.19273598945908052,0.15606924930969765,0.3355141921518168,0.4246738945407399,0.24092814686606698
218,1456704147347235,0.2758043316457804,0.31428912890680527,0.29446410899147,0.19963922063655323,0.1538153885078915,0.3352103954682402,0.422886606661249,0.23974769474398616
219,1456704147347235,0.27239125573370665,0.3085756969443138,0.2941163298179775,0.20609409530686343,0.1516057698893188,0.33501243247508633,0.42072967430560493,0.23916892382700167
220,1456704147362261,0.2689819060789481,0.3045742784730624,0.2932339046482798,0.21200331875035283,0.1494546239123147,0.33490090344298074,0.41829250739008433,0.2391315996476011
221,1456704147362261,0.26563761791621476,0.30225252365071187,0.2918072670230794,0.21728325395651757,0.14738394063175791,0.33485217516262844,0.4156848558863076,0.2395715827288799
222,1456704147369420,0.26242452019154167,0.30155075044081214,0.28984588720505206,0.2218630971368047,0.14542130126428998,0.3348372649369514,0.41303248184411295,0.24042172042269264
223,1456704147369420,0.2594123488691373,0.3023847852216726,0.2873754370710394,0.22568401639159305,0.14359752297854275,0.3348212799120813,0.41047238123123325,0.24161273999081304
224,1456704147385241,0.2566731939375801,0.30464896690276466,0.2844348769317134,0.22869834307297265,0.1419442468667488,0.3347634925602797,0.40814784982778535,0.24307422354404212
225,1456704147385241,0.2542802108760216,0.30821919731012926,0.2810735864822961,0.23086889027434462,0.14049160132468222,0.334618067633396,0.40620361295180124,0.2447357321897456
226,1456704147392421,0.2523063052474799,0.3129559656809645,0.2773486236761219,0.23216845582691184,0.13926606153891735,0.3343353891611237,0.40478115443901097,0.24652810972449493
227,1456704147392421,0.25082278188542484,0.31870731669589714,0.27332214677132827,0.23257954339303138,0.13828860419412994,0.3338638823585378,0.404014326704943,0.2483849418636816
228,1456704147399237,0.24989793699306126,0.3253117573050887,0.2690590019264713,0.2320943021953769,0.13757323173773112,0.3331521948480379,0.40402530851275736,0.2502440889437892
229,1456704147399237,0.24959556346512674,0.33260110475475324,0.2646244821625917,0.23071464881570405,0.13712591754315598,0.3321515920958226,0.4049209755225769,0.25204916452740533
230,1456704147408238,0.24997333889427314,0.34040327626171746,0.26008229305189223,0.22845250087967642,0.13694400326381742,0.3308184244518252,0.4067897340307442,0.2537508134094352
231,1456704147408238,0.25108107063058105,0.3485450138822231,0.2554927853526683,0.2253300265608318,0.13701606059709212,0.3291165382805411,0.4096988337171221,0.2553076596081386
232,1456704147421753,0.25295878742526157,0.356854520590103,0.2509115165667459,0.22137979837598454,0.13732220821235328,0.3270195367011288,0.41369213331265514,0.25668684619936727
233,1456704147421753,0.25563470351500783,0.36516396098504916,0.24638818553459613,0.21664473924397865,0.13783485005327806,0.3245128322481164,0.41878826779802214,0.2578641546753118
234,1456704147429249,0.25912313523420133,0.3733117729539892,0.24196595767648493,0.2111777687737215,0.13851977849889358,0.3215954433746507,0.42497917751989095,0.25882374555627635
235,1456704147429249,0.26342249717227373,0.38114475565756667,0.23768117330867147,0.20504109800208367,0.1393375723090261,0.31828145876498704,0.43222900650869733,0.25955759116300897
236,1456704147444269,0.26851352135303774,0.3885199315517354,0.23356341290411772,0.19830517021790484,0.1402452185822886,0.3146010581187883,0.44047343692986035,0.2600646780631485
237,1456704147444269,0.274357829745114,0.3953062020030639,0.22963587655343257,0.191047290351159,0.14119789718155767,0.31060097610936616,0.44961957584774054,0.26035004724163596
238,1456704147451264,0.2808969639196755,0.4013858098332067,0.22591601304520292,0.18335002023084088,0.1421508766727354,0.3063443325734403,0.45954653264763096,0.2604237231137942
239,1456704147451264,0.2880519496566531,0.40665558621357334,0.22241631200422646,0.17529944035615452,0.1430614726039851,0.3019097956120127,0.47010681090528766,0.26029957158573164
240,1456704147459265,0.2957234553602881,0.4110279106041918,0.21914516324196603,0.16698338604208374,0.14389100798412008,0.29739007493118064,0.48112859503912103,0.2599941317179255
241,1456704147459265,0.30379258962243555,0.41443127856061523,0.21610769257859858,0.15848975451056183,0.14460669961656406,0.2928897724702271,0.49241896565757176,0.25952547838570167
242,1456704147474266,0.31212236570150187,0.4168103786806417,0.2133064936524631,0.1499049546397729,0.14518338354172813,0.28852265879958305,0.5037680488137167,0.2589121781600086
243,1456704147474266,0.3205598329878655,0.41812563941803865,0.2107421892392967,0.14131254099177873,0.14560499086707493,0.2844084861789387,0.5149540872910241,0.25817238962757044
244,1456704147483266,0.3289388441713774,0.41835230681871904,0.208413781033847,0.13279204732521133,0.14586568965677155,0.28066947434787076,0.5257493901806687,0.257323140332088
245,1456704147483266,0.3370834045020674,0.4174792140705057,0.20631878305778653,0.12441801996745161,0.14597062254427792,0.27742660609359815,0.5359270489961886,0.25637979772485114
246,1456704147488271,0.34481154231560396,0.4155074578166353,0.20445316850990322,0.11625924880053594,0.14593619545654535,0.2747958515860514,0.5452682039952179,0.25535574295402147
247,1456704147488271,0.3519396396489877,0.4124491902190785,0.20281118148738725,0.1083781943266753,0.14578990101653333,0.27288441576029,0.5535695223216502,0.2542622452636035
248,1456704147505271,0.35828715137086903,0.40832668688087154,0.20138507022466764,0.10083060371127539,0.14556967940649776,0.2717870841484605,0.5606504454121481,0.2531085168122964
249,1456704147505271,0.36368161239592195,0.40317178229524064,0.20016479121609676,0.09366529607036067,0.14532283035818105,0.2715827367278775,0.5663597194379313,0.2519019118302534
250,1456704147512320,0.36796379313367517,0.397025693974088,0.19913772196007026,0.08692408561774378,0.14510450138915126,0.2723311078052045,0.5705807566103078,0.25064823065800973
251,1456704147512320,0.37099282591403937,0.3899391964855994,0.19828841088215618,0.08064180954405747,0.14497579519194131,0.274069887662774,0.5732354609241328,0.24935209487368012
252,1456704147528165,0.3726510928028154,0.3819730618985781,0.1975983873064401,0.0748464369179706,0.14500156307774623,0.2768122821333168,0.5742862624567009,0.2480173597870052
253,1456704147528165,0.3728486314043913,0.37319864647778267,0.19704605064479236,0.06955924783146952,0.145247977382199,0.2805451673434111,0.5737362497179268,0.24664751456624937
254,1456704147529972,0.37152678144358897,0.36369846531099653,0.19660665693560844,0.06479507955351037,0.14577999644633227,0.28522799267564863,0.5716274752835125,0.24524599587971982
255,1456704147529972,0.3686607870281731,0.3535665645216361,0.19625242383233235,0.06056263594996445,0.14665884484181385,0.2907925790384092,0.5680376922491164,0.24381633564085806
256,1456704147541873,0.36426111955993595,0.3429085032413156,0.19595278176113162,0.05686485138419976,0.14793962820215456,0.2971439203388281,0.5630759029463848,0.24236209766461872
257,1456704147541873,0.3583733943034061,0.33184081359676365,0.19567480668027076,0.053699295502844045,0.14966918851420627,0.30416203328124225,0.5568771516284713,0.24088661327377833
258,1456704147548887,0.35107688587980185,0.32048989756675544,0.1953838721588072,0.05105860275157063,0.15188428298816647,0.31170483604712484,0.5495969820395437,0.23939256319799787
259,1456704147548887,0.3424817706545291,0.3089904038378001,0.19504454685067515,0.04893090947367028,0.15461014148896496,0.3196119827714484,0.5414059228534859,0.23788146271350621
260,1456704147564877,0.33272531885339535,0.29748318063385454,0.1946217354939441,0.04730028180737831,0.1578594328489467,0.32770953334092034,0.5324842751259409,0.23635311098700137
261,1456704147564877,0.3219673134282279,0.2861129223669219,0.19408202570439895,0.046147120522755776,0.16163165390235737,0.3358152864168199,0.52301737401802,0.23480507737299433
262,1456704147572014,0.31038497802235265,0.27502563009384434,0.1933951730777722,0.04544853405239814,0.16591294085544966,0.3437445471951358,0.5131913919022754,0.2332323073940148
263,1456704147572014,0.29816766173566467,0.26436599957328505,0.1925356431431417,0.04517867545197718,0.17067628352666414,0.35131605083193146,0.5031896456217395,0.23162692852798522
264,1456704147588680,0.2855114805984356,0.25427484320548316,0.19148412923257105,0.04530904162070759,0.17588210261967704,0.3583577316005624,0.4931892776260993,0.2299783213799184
265,1456704147588680,0.2726140808710277,0.24488664099271432,0.19022896877126505,0.045808736325420416,0.1814791380266599,0.36471203048166967,0.48335812553842034,0.22827349828880883
266,1456704147589681,0.2596696718234139,0.23632729238027053,0.18876737326231538,0.04664470477329595,0.1874055935509114,0.3702404759845614,0.47385161129150133,0.2264977978785418
267,1456704147589681,0.24686445961826523,0.22871210260272162,0.18710636706701672,0.0477819548469827,0.19359048224226663,0.37482734125670963,0.46480957165297965,0.22463586120742796
268,1456704147603046,0.23437258872864936,0.22214399324093173,0.18526331438765528,0.0491837845546652,0.19995511257904008,0.3783822515944652,0.45635306719580104,0.222672809688739
269,1456704147603046,0.22235267030927602,0.21671189422810844,0.18326592887737828,0.050812034960757806,0.20641465646291107,0.38084168194320395,0.4485812926277265,0.2205955082130585
270,1456704147608968,0.21094495482000694,0.2124892680149029,0.18115171301985197,0.05262738420384568,0.2128797552455232,0.38216935383479145,0.4415687592493677,0.21839378195305278
271,1456704147608968,0.20026918224316012,0.20953273589492247,0.17896683951904976,0.05458969310987288,0.2192581495288873,0.3823556205056911,0.43536294732031966,0.2160614667922815
272,1456704147625491,0.19042311219635244,0.20788080521428928,0.17676453269141604,0.05665840734077455,0.22545635129429883,0.3814160026121121,0.42998263862084596,0.21359719909117775
273,1456704147625491,0.18148170632768953,0.20755271769963682,0.17460302894558621,0.058793015445165284,0.23138139838295477,0.37938908231791224,0.42541713366254297,0.21100487676422064
274,1456704147631689,0.17349691825564176,0.20854745203048558,0.17254320794396588,0.06095355704618694,0.2369427295526008,0.3763339708231391,0.42162653057247046,0.20829375403175282
275,1456704147631689,0.16649804358259823,0.21084292462373816,0.17064599966343727,0.06310117093920257,0.2420541902319116,0.3723275399309578,0.41854319302076426,0.20547817497304532
276,1456704147647698,0.16049258507184425,0.21439544007838388,0.1689696829070573,0.06519866879244657,0.24663613428100767,0.3674615657284709,0.4160744673424903,0.2025769972674588
277,1456704147647698,0.15546758643578554,0.2191394423408593,0.16756719251512486,0.0672111158391153,0.25061754234314276,0.361839888637196,0.4141066329071036,0.19961279134376142
278,1456704147649698,0.1513913816882835,0.22498761568788098,0.1664835468325744,0.06910639508281624,0.2539380447061252,0.3555756613415884,0.41250998957161333,0.19661091729814292
279,1456704147649698,0.14821570139313128,0.2318313898656725,0.16575349798312433,0.0708557263810678,0.25654971547060906,0.34878872935769334,0.4111449000799306,0.19359858316817238
280,1456704147661704,0.1458780751637585,0.23954190980657866,0.16539949826233796,0.0724341072465457,0.25841848855126587,0.34160315174169603,0.4098685127940674,0.19060396990092593
281,1456704147661704,0.14430446895153298,0.24797152457155375,0.1654300677278541,0.07382064038103488,0.25952503951607186,0.3341448225706638,0.40854179766117027,0.18765547252517434
282,1456704147668698,0.14341209293988533,0.25695583484202095,0.16583863977524496,0.07499871741645034,0.25986500267490675,0.32653912630422377,0.4070364494051047,0.18478106804886835
283,1456704147668698,0.1431123090084851,0.2663163249002784,0.1666029509706024,0.07595604210379302,0.25944846548613815,0.3189085780954619,0.40524116796429904,0.18200779470109457
284,1456704147684985,0.1433135540058459,0.2758635927200361,0.16768502696238227,0.07668449751501144,0.2582987846805842,0.31137045510502664,0.40306684626967343,0.17936131866886765
285,1456704147684985,0.1439241794228192,0.28540116835595286,0.16903179616321962,0.07717988308674226,0.2564508600592206,0.30403448357523555,0.4004502998225855,0.17686556423903915
286,1456704147692035,0.14485509940037883,0.29472987010670065,0.17057633621724205,0.07744156021644097,0.25394905239095306,0.2970006812063931,0.39735634828941035,0.17454237966936606
287,1456704147692035,0.14602214657286178,0.303652593460655,0.17223972752561809,0.07747204694965536,0.2508449388786382,0.2903574573160562,0.3937782590419698,0.17241120184204511
288,1456704147707989,0.14734805698413772,0.3119793663075199,0.17393345768009613,0.07727659673571338,0.24719508034776166,0.28418005336985674,0.3897367280639466,0.17048867562883033
289,1456704147707989,0.14876402872277208,0.3195324473119811,0.1755622949544094,0.07686278865413931,0.24305894421454127,0.2785293801008485,0.3852776666725915,0.16878819114263233
290,1456704147709737,0.15021081556107027,0.32615121217031984,0.17702753301913274,0.07624014976090923,0.23849708953583582,0.2734512871068002,0.3804690873189891,0.16731933222430503
291,1456704147709737,0.1516393323704516,0.33169657615361603,0.17823050364386012,0.07541982393623192,0.23356967445221963,0.2689762917011954,0.3753973750178781,0.16608727665543022
292,1456704147723214,0.1530107733980566,0.3360547290668984,0.17907624985401024,0.0744142944023264,0.22833529928489646,0.2651197937628033,0.3701632207447935,0.1650922308644562
293,1456704147723214,0.15429627677499952,0.3391399913616161,0.1794772364404747,0.07323715906705079,0.2228501632423983,0.2618827997596789,0.3648774768194829,0.1643289991310508
294,1456704147729214,0.15547619965419326,0.3408966403702185,0.17935694863822368,0.07190295160622899,0.21716749755199224,0.2592531562261095,0.3596571606077965,0.1637867771354893
295,1456704147729214,0.15653909290314696,0.34129962367336386,0.17865321064815842,0.07042699895210515,0.211337238833127,0.25720725065235794,0.35462178627894564,0.1634492324848747
296,1456704147744729,0.1574804809852266,0.34035417352886704,0.1773210618206143,0.06882530593563212,0.20540590843344264,0.25571209431302544,0.3498901545369748,0.1632949003602475
297,1456704147744729,0.15830155744232416,0.33809442929890243,0.17533505944098177,0.06711445633482255,0.1994166553204342,0.25472767313706496,0.34557767230630426,0.1632978863616582
298,1456704147753722,0.15900789587722017,0.3345812302880005,0.1726909140765149,0.06531151634952036,0.1934094087276452,0.25420943769976073,0.34179419792925353,0.16342883496146476
299,1456704147753722,0.1596082538703124,0.3298992595418076,0.16940638971917263,0.06343392619718506,0.18742108627073858,0.2541107912886614,0.33864232052843984,0.16365609380454504
300,1456704147767723,0.16011351978663188,0.32415372159217715,0.165521419264388,0.06149937118168519,0.1814858165120466,0.25438542566074446,0.33621591296527614,0.16394698493698193
301,1456704147767723,0.16053582601666333,0.31746673412660514,0.16109741226589144,0.059525632341352976,0.175635153561178,0.254989361720658,0.33459877349318246,0.1642690906936897
302,1456704147769724,0.16088783237937093,0.3099736010328764,0.15621577502865153,0.05753042330782646,0.1698982770994114,0.25588258921763085,0.3338631997868202,0.164591482335707
303,1456704147769724,0.16118217382585595,0.3018191112109328,0.15097571224814152,0.0555312221685049,0.16430218007263833,0.2570302601363089,0.33406840754970835,0.16488586143919748
304,1456704147782729,0.16143106545335423,0.2931539782831926,0.1454914167411043,0.053545106584546254,0.1588718473981099,0.25840345345068877,0.3352587918165629,0.16512762793686003
305,1456704147782729,0.16164606015247138,0.28413150437759904,0.1398887748036228,0.051588599118098245,0.1536304259807539,0.2599795748701433,0.3374621142401982,0.16529691048410877
306,1456704147788724,0.16183795664301692,0.27490452470593124,0.13430172787296282,0.04967752801069141,0.1485993846832971,0.26174247916454485,0.34068777089647523,0.1653795870530231
307,1456704147788724,0.162016855909781,0.26562268098987396,0.12886844102855222,0.047826906790346485,0.14379866463821908,0.263682408031685,0.3449253359777122,0.1653682978681655
308,1456704147804937,0.16219235970627796,0.2564300783440212,0.12372743009054031,0.046050835152349805,0.13924682321837792,0.26579582409577013,0.35014357504725696,0.16526342329831506
309,1456704147804937,0.1623738963703215,0.2474633813608028,0.11901378611611495,0.044362423854999236,0.13496117647198766,0.2680851925956306,0.3562900835536022,0.16507397224836676
310,1456704147811978,0.16257114911468923,0.23885038678214357,0.11485561096599614,0.042773746472124695,0.13095794409004546,0.27055872726920666,0.36329164919929346,0.16481830167155015
311,1456704147811978,0.1627945500600357,0.23070907761287446,0.11137074770720938,0.04129581916359273,0.12725239835949656,0.2732300923919132,0.37105537407790906,0.16452456390143874
312,1456704147829931,0.1630557889451325,0.22314712820490762,0.10866386227303364,0.039938606331369725,0.12385901384774614,0.27611804485396335,0.37947053495688254,0.16423076027678804
313,1456704147829931,0.16336827187680483,0.2162617986027696,0.10682391250941112,0.038711046893636844,0.12079160632743376,0.27924599647049947,0.3884111173212679,0.16398428190456685
314,1456704147831932,0.16374745749766478,0.21014013301763007,0.10592202901904726,0.03762109430742555,0.11806343726011316,0.2826414632860384,0.39773893105037655,0.1638408563767416
315,1456704147831932,0.164210998925842,0.20485936157634657,0.10600982795318824,0.036675763143493426,0.1156872485865014,0.2863353511711988,0.4073071913590717,0.1638628885216252
316,1456704147843143,0.164778631416114,0.2004873919527742,0.10711817532417345,0.03588117502153724,0.11367519088625275,0.2903610266943437,0.4169644175918035,0.1641172586271858
317,1456704147843143,0.16547176663956806,0.19708326578806334,0.1092564211047404,0.035242596704158406,0.11203862184759644,0.2947531473012686,0.4265584671257303,0.16467269884314378
318,1456704147848938,0.16631278217297027,0.19469744990537768,0.11241211827363988,0.0347644631865319,0.11078777584314661,0.2995462571685171,0.43594049148261754,0.16559690191807988
319,1456704147848938,0.1673240288469526,0.19337184721170422,0.11655123905730966,0.03445037839158888,0.10993132706711237,0.30477317021007483,0.4449685838104483,0.16695353240350014
320,1456704147864939,0.1685266157455699,0.19313945696728818,0.12161889752416037,0.034303085268714464,0.10947588083601387,0.3104631552815549,0.45351089125910593,0.16879931227511583
321,1456704147864939,0.1699390613603345,0.19402368192668892,0.12754058026600698,0.03432439658059867,0.10942543119855494,0.31663993129923723,0.4614480106064276,0.17118133976251496
322,1456704147871940,0.1715759095392177,0.1960373484471327,0.13422387231073413,0.034515079404358814,0.1097808218558877,0.3233194985395583,0.468674578522083,0.17413477594372206
323,1456704147871940,0.17344640191302205,0.1991815583356078,0.14156064488116452,0.03487469136393236,0.11053924381138405,0.3305078821353491,0.47510008251007646,0.17768100660530622
324,1456704147888134,0.17555328235197454,0.20344452527612852,0.14942964862603528,0.035401373384429884,0.11169379698021226,0.3381989183976975,0.48064900857457166,0.18182636026702848
325,1456704147888134,0.17789179029436292,0.2088005625268723,0.1576994347265125,0.036091609599421814,0.11323313364559191,0.34637224121748283,0.4852604867407018,0.1865614332203579
326,1456704147894155,0.180448883500214,0.21520937773959806,0.1662315101954103,0.036939968453918,0.11514119057704107,0.35499161832144555,0.4888876125018013,0.1918610357808892
327,1456704147894155,0.18320271954687312,0.2226157979234681,0.17488362437822189,0.037938840273539665,0.11739700716219402,0.36400376242305654,0.49149662546675277,0.19768473384366506
328,1456704147903145,0.1861224181768847,0.2309500027747473,0.18351308392063326,0.03907818619159956,0.1199746222310769,0.3733377118908842,0.4930661054750277,0.20397792295163764
329,1456704147903145,0.18916812296844626,0.2401282948933938,0.19198000558227626,0.04034531170621497,0.12284304399696938,0.38290484047393203,0.49358629352269456,0.21067334441552915
330,1456704147909156,0.19229138185998554,0.2500543824047047,0.2001504333929316,0.041724676032060565,0.1259662954578175,0.3925995200390217,0.49305857983361406,0.21769293818631838
331,1456704147909156,0.19543586739002633,0.26062109682439893,0.20789925484919683,0.043197746899063846,0.12930354843772185,0.40230042960392803,0.4914951527223886,0.22494992573381828
332,1456704147925393,0.19853844882799293,0.2717124282184421,0.21511284503549774,0.04474291036296698,0.13280936701173277,0.4118724768480218,0.48891877744025064,0.2323510248685857
333,1456704147925393,0.20153060451356172,0.28320574583999797,0.22169135765567982,0.046335446799228096,0.13643408122267986,0.42116927453281766,0.4853626649219222,0.23979871034409914
334,1456704147932183,0.20434012847911998,0.2949740877829775,0.2275505810780691,0.04794758692997807,0.14012430693310204,0.43003610002537634,0.48087039173800245,0.24719344316503858
335,1456704147932183,0.20689305120809395,0.3068884262417843,0.23262329084202107,0.04954866397747098,0.1438236221318845,0.438313264178848,0.4754958448039603,0.2544357989601132
336,1456704147948191,0.20911567437056544,0.31881981950544075,0.23686005736675345,0.05110537832292653,0.14747340484466537,0.4458398196604713,0.46930317592355236,0.26142843804393945
337,1456704147948191,0.21093662542990751,0.3306413516645212,0.24022950652201405,0.05258218873707781,0.15101382882428416,0.4524575347403594,0.4623667422650926,0.2680778823117839
338,1456704147950193,0.21228886397460478,0.3422297683525355,0.24271807172302426,0.053941839780448496,0.15438499680162782,0.4580150327454404,0.4547709760424571,0.27429609789947385
339,1456704147950193,0.21311159340634994,0.35346675851370785,0.24432930440264047,0.055146029452839494,0.15752817049741913,0.46237195413479476,0.44661009324471296,0.28000191884826603
340,1456704147962192,0.21335203426577695,0.3642398867991693,0.24508281974646995,0.05615621557231696,0.16038704125295392,0.46540296800500575,0.43798754629718045,0.2851223676924699
341,1456704147962192,0.21296701014051309,0.37444322115507944,0.2450129560821583,0.05693455388537633,0.16290898267859455,0.4670014720126758,0.4290151542178924,0.28959392364545783
342,1456704147971192,0.21192430167096424,0.3839777267978453,0.2441672310522595,0.057444955182763845,0.16504623692291018,0.46708287124619285,0.419811884853711,0.2933637662383492
343,1456704147971192,0.21020373948007304,0.3927515279535547,0.24260468640678423,0.057654242609918124,0.16675700251490744,0.4655873900336731,0.4105022988184851,0.29639099387921225
344,1456704147985494,0.2077980212881488,0.4006801714908854,0.2403942157123817,0.05753338442004544,0.16800640733522224,0.4624824196701598,0.40121469618148453,0.298647783614296
345,1456704147985494,0.20471324387759415,0.4076870408122876,0.23761295611563032,0.057058772363894054,0.1687673617827625,0.4577644226057728,0.39207903775843256,0.3001204171966333
346,1456704147992196,0.20096913609896536,0.41370404831174756,0.234344799799117,0.05621351244031202,0.16902129334653077,0.45146039049641534,0.38322472823605347,0.30081005439263814
347,1456704147992196,0.19659896930643772,0.41867268454078355,0.23067905543655817,0.05498869294566546,0.16875876202030884,0.4436287938810861,0.37477833245922865,0.30073310025193856
348,1456704148008195,0.19164911551582667,0.42254543593664556,0.226709270664867,0.0533845934679353,0.16797994434873256,0.43435989095499583,0.3668612563700022,0.2999210064176747
349,1456704148008195,0.1861782314574125,0.42528751081833355,0.2225322075478432,0.05141179658253082,0.16669495706205983,0.42377522367347276,0.3595873881184936,0.2984193868203755
350,1456704148010195,0.18025607365854607,0.4268787414507074,0.21824693839383233,0.049092162798540534,0.16492398096495892,0.41202615289667827,0.3530606883458296,0.29628642096505214
351,1456704148010195,0.17396198828023182,0.4273154652806194,0.2139540022224467,0.0464596309704697,0.16269715190560366,0.3992913662901731,0.34737274996209627,0.29359063824048187
352,1456704148022212,0.1673831513713871,0.4266121430901694,0.2097545436698264,0.04356081036260206,0.16005420768475945,0.385773398097665,0.34260040876962533,0.29040827952225
353,1456704148022212,0.1606126472888295,0.4248024664021607,0.2057493598768989,0.04045533387988869,0.15704390733858942,0.37169429323667313,0.3388035537242886,0.2868204860024135
354,1456704148031213,0.15374746806612472,0.4219397614337892,0.2020378109971011,0.03721594353327317,0.15372326043943108,0.357290612368516,0.3360233257603395,0.2829105654955867
355,1456704148031213,0.146886505473228,0.41809660572967633,0.1987165909277958,0.03392828142602085,0.15015661294644597,0.34280800667558536,0.3342808851650014,0.2787615464408952
356,1456704148045487,0.14012859682039536,0.4133636875866694,0.19587838624790582,0.03069036530348949,0.1464146346755925,0.32849559615672097,0.33357687886714066,0.27445416697295905
357,1456704148045487,0.13357067416392107,0.4078480024969145,0.1936104711239925,0.027611736521922624,0.14257324763305435,0.31460037400150986,0.333891679394825,0.27006537679235465
358,1456704148052221,0.12730605132575526,0.4016704894088126,0.19199330502649586,0.024812277196756213,0.13871252847691676,0.3013618418796678,0.33518641682604894,0.265667363839529
359,1456704148052221,0.12142286558692396,0.3949632006812935,0.1910992188897429,0.022420701292675465,0.13491561322640183,0.28900706109696456,0.3374047831949211,0.2613270630210045
360,1456704148068223,0.11600267866464216,0.38786609993036325,0.1909912823118173,0.02057273330329203,0.13126762796333763,0.2777462815518408,0.34047554547199926,0.2571060675344173
361,1456704148068223,0.11111924136559549,0.38052359122973684,0.19172243252609353,0.019408998299822948,0.1278546644357766,0.26776927947215834,0.34431565612249115,0.25306084747397734
362,1456704148070223,0.10683743633479534,0.37308090027562485,0.193334918096921,0.019072655940243405,0.12476281098590361,0.25924249187491505,0.34883380874304815,0.24924317988062328
363,1456704148070223,0.10321242503107088,0.36568045486154593,0.19586007308907652,0.01970681668811175,0.12207723494143043,0.2523069844020966,0.3539342628785077,0.24570070183223353
364,1456704148082485,0.10028903062149332,0.35845843561705043,0.19931839785069116,0.021451782044455886,0.11988129504697476,0.24707724235829762,0.35952076074331013,0.24247750928931658
365,1456704148082485,0.09810138409156813,0.35154166713275675,0.20371988902004157,0.0244421541232512,0.11825564910567052,0.24364074360169732,0.3655003715461455,0.23961473600205696
366,1456704148091228,0.09667284643052347,0.3450449878621905,0.20906454182551562,0.02880386479245224,0.1172773213543204,0.2420582547645555,0.371787122013741,0.23715105746321838
367,1456704148091228,0.09601619921500561,0.3390691899149589,0.21534294510704613,0.03465118142221311,0.11701870844636283,0.24236477812394763,0.37830531098048137,0.23512307694096327
368,1456704148105488,0.09613407560677258,0.33369957698127606,0.22253690088243214,0.04208375450259554,0.11754652355375945,0.24457106037411575,0.38499245639767415,0.23356556464414457
369,1456704148105488,0.09701958746782578,0.32900515595990976,0.2306200195401828,0.05118378030295886,0.1189206915465207,0.24866556215521846,0.3918018567408595,0.23251153008230233
370,1456704148112225,0.09865709135896805,0.32503844925391645,0.2395582620376113,0.06201335732725458,0.12119320814632262,0.25461678171117175,0.39870474476333184,0.23199210204851958
371,1456704148112225,0.10102302658899504,0.32183588637630195,0.24931041869227064,0.07461211729157811,0.12440696782123328,0.26237582036690227,0.40569197984857713,0.23203617371404947
372,1456704148128251,0.1040867560258999,0.31941870732455774,0.2598285314125437,0.08899520953860819,0.1285945594576531,0.27187906452889954,0.4127751894972823,0.2326697666934362
373,1456704148128251,0.1078113481657577,0.31779428828702083,0.2710582800470773,0.10515171300831762,0.13377703253407142,0.2830508436964146,0.4199872428243773,0.2339151022978826
374,1456704148130252,0.1121542560084333,0.3169577841257213,0.28293935732857406,0.12304354390289991,0.1399626516077359,0.2958059179759325,0.427381916920166,0.2357894316596224
375,1456704148130252,0.11706787163727009,0.31689397265650276,0.2954058519706564,0.14260492216733314,0.14714568171430736,0.3100516537117413,0.43503260050347015,0.23830373077817033
376,1456704148142260,0.12249995998873964,0.3175791847939875,0.3083866553352819,0.16374245550250527,0.15530527561858226,0.32568975322824056,0.4430298836622566,0.24146138580219176
377,1456704148142260,0.12839399430595633,0.3189832195924205,0.32180590645796986,0.18633589110225526,0.16440455556843434,0.34261741325023093,0.45147792247391955,0.24525698291949782
378,1456704148150260,0.13468942624167257,0.32107117940292507,0.33558348684293193,0.2102395673344128,0.17438998800066263,0.3607278145259482,0.4604895365916032,0.24967529137572744
379,1456704148150260,0.14132192764262178,0.3238052036969841,0.34963556833082554,0.235284569293125,0.18519113758169048,0.37990990955758,0.47018008541042433,0.25469049746387656
380,1456704148164266,0.1482236407839324,0.3271461039681651,0.36387521182919247,0.2612815555827188,0.19672086412812467,0.4000475624556532,0.48066028209635153,0.2602657214245083
381,1456704148164266,0.15532347153168902,0.3310548964398789,0.378213018007995,0.28802417966374255,0.20887600159489136,0.42101816978696094,0.4920282468584786,0.26635283805496945
382,1456704148171262,0.16254746058813035,0.3354942088063845,0.392557835638061,0.31529297998851374,0.2215385360033446,0.4426909366961438,0.5043612343516045,0.2728926269351871
383,1456704148171262,0.16981927372618236,0.3404295185256161,0.406817519089889,0.34285956944228047,0.23457727847609575,0.464925011400054,0.5177075444372948,0.27981528902633274
384,1456704148187267,0.1770608574592488,0.345830162258743,0.4208996813763034,0.3704909313279588,0.2478500115502886,0.48756771175159136,0.5320791248740779,0.2870413687363902
385,1456704148187267,0.18419330497484937,0.3516700278793003,0.43471232970636486,0.3979536304398298,0.2612060724584609,0.5104531111004494,0.547445321070314,0.2944831076850778
386,1456704148189262,0.1911379657877115,0.35792780346735403,0.4481642400605395,0.4250177590999101,0.27448932224463907,0.533401270177455,0.5637281557559982,0.302046231166493
387,1456704148189262,0.1978178124784139,0.3645866370603838,0.4611649651617901,0.4514604444753394,0.2875414285633368,0.5562183850511719,0.5807994540530045,0.3096321376002064
388,1456704148201263,0.2041590524089186,0.37163308849578375,0.4736244745427662,0.47706875727549114,0.300205361270336,0.5786980554437283,0.5984800678014794,0.3171404347163468
389,1456704148201263,0.21009294675952433,0.37905533478605685,0.48545254627447115,0.5016419133937,0.3123289689596034,0.6006237656946498,0.6165413814775802,0.3244717534049231
390,1456704148210263,0.21555777789181418,0.3868406915785406,0.4965581084036516,0.5249927486399587,0.3237684830967544,0.6217725293801848,0.6347091873633571,0.33153076902946693
391,1456704148210263,0.2205008889521641,0.394972602428013,0.5068487397351288,0.5469485252408715,0.33439179671379465,0.6419195083601049,0.6526698967660379,0.3382293579805312
392,1456704148224814,0.2248807041813673,0.4034273204403783,0.5162304966472542,0.5673511625507017,0.3440813882058956,0.6608433186849586,0.670078914801481,0.34448981170769655
393,1456704148224814,0.22866862342051428,0.4121705707136486,0.5246081638543599,0.586056998106771,0.3527367951920603,0.6783317078273818,0.6865708673809968,0.35024803088964124
394,1456704148232280,0.231850670081705,0.42115452450760565,0.5318859675965142,0.6029362186371017,0.36027657571778265,0.6941873149891464,0.7017712493733194,0.3554566261492706
395,1456704148232280,0.2344287569169609,0.4303154102820719,0.5379687659499268,0.6178721475851812,0.3666397183713099,0.7082332563186996,0.7153089702071342,0.36008784042405073
396,1456704148248391,0.23642141880811035,0.4395720232269384,0.5427637317396542,0.6307605975186469,0.37178647649001284,0.7203182689062754,0.7268292114372453,0.36413617487403604
397,1456704148248391,0.23786386026580852,0.4488252933118561,0.546182528230501,0.6415094717707824,0.37569860768862423,0.7303211115858422,0.7360059874882884,0.3676205605885502
398,1456704148254285,0.23880720219397994,0.45795896145036824,0.5481439270828702,0.6500387427735144,0.3783790089400803,0.7381539087332604,0.7425538213335326,0.37058588685074
399,1456704148254285,0.23931689635845677,0.4668413121556242,0.5485767530342499,0.6562808705186036,0.37985075745223934,0.7437641817557656,0.7462380148878296,0.37310366960299013
400,1456704148262285,0.2394703780325464,0.47532782578633426,0.5474229869216916,0.6601816664206481,0.38015559796044324,0.7471354430229082,0.7468831089024558,0.3752716205080501
401,1456704148262285,0.23935410329329898,0.48326455224473747,0.5446408249565041,0.6617015512236502,0.37935195115148596,0.7482863890956901,0.7443792651234753,0.3772118865421885
402,1456704148271356,0.23906015037429915,0.49049198267888705,0.5402074745688884,0.6608170936243805,0.37751254647103816,0.7472688774774,0.7386864223310146,0.37906780627128944
403,1456704148271356,0.23868257095419462,0.49684920653686776,0.5341214657510974,0.6575226553738083,0.37472179668094274,0.7441649712140574,0.729836160042808,0.3809991617213348
404,1456704148285396,0.23831367659500566,0.5021781704685905,0.526404278980854,0.6518319370315697,0.3710730272651945,0.7390833703381495,0.7179312657113927,0.38317604724270077
405,1456704148285396,0.23804043962764423,0.5063278894921802,0.5171011469737021,0.6437792496473878,0.36666565493196174,0.7321555166313987,0.7031430615368908,0.38577159812638917
406,1456704148298474,0.23794116965441092,0.5091585037324957,0.5062809767282711,0.6334204283872829,0.36160238382749776,0.7235315838648657,0.6857066195115883,0.3889539185481256
407,1456704148298474,0.23808259387651554,0.5105451253983128,0.494035442679819,0.6208334046307653,0.3559864626248433,0.7133764927193158,0.6659140936037837,0.3928776143796691
408,1456704148308389,0.23851742673779877,0.5103814610973002,0.48047739915562443,0.6061185096703365,0.3499190303183182,0.701866046839621,0.6441065164975402,0.3976753599420207
409,1456704148308389,0.23928247397974944,0.5085832082454566,0.465738828847243,0.5893985802815128,0.3434965863568951,0.6891832732564711,0.6206645015983477,0.4034499166239007
410,1456704148314360,0.24039729237053067,0.5050912138978854,0.4499685589700133,0.5708188924262688,0.33680865218341405,0.6755150482588057,0.5959983236860728,0.4102670002184466
411,1456704148314360,0.2418634248378059,0.499874357978074,0.4333299271248834,0.5505468852000204,0.3299357266598572,0.661049080553828,0.5705378249815705,0.41814937492967447
412,1456704148322290,0.24366424260059585,0.49293208725778315,0.4159984838002928,0.5287715655613647,0.3229476546962158,0.6459713038733873,0.5447225271744143,0.4270725216044594
413,1456704148322290,0.24576543343833315,0.48429649085777154,0.3981597158748651,0.5057024253747143,0.31590251887180437,0.6304637108140173,0.518992238928009,0.43696216614460814
414,1456704148330990,0.2481161633868129,0.474033778940325,0.3800067041182546,0.48156768706193503,0.30884613427696583,0.614702644957489,0.4937783460920538,0.44769385958648467
415,1456704148330990,0.25065090403662743,0.46224500176094074,0.36173761575778585,0.4566117446740587,0.30181218866807824,0.598857555950404,0.46949588044775026,0.459094689561155
416,1456704148345544,0.25329186780144575,0.4490658248252563,0.3435529785906756,0.43109177476220245,0.29482303017879324,0.5830902028781285,0.44653640334931166,0.47094709093146814
417,1456704148345544,0.255951944375572,0.43466516970600594,0.3256527459117957,0.40527361650091936,0.28789106057813435,0.5675542515592789,0.4252617158866725,0.48299462559419853
418,1456704148351505,0.2585379977498867,0.41924256703103113,0.30823319829383705,0.3794271183220805,0.28102063999827703,0.5523951457022068,0.4059983981408848,0.4949495307240445
419,1456704148351505,0.2609543718876173,0.40302417032657556,0.29148373417862183,0.35382119579274274,0.2742103565357244,0.5377500584364424,0.38903316005487165,0.5065017945089116
420,1456704148367506,0.2631064601076842,0.38625753372713073,0.27558360510803864,0.32871884251508543,0.2674554746418994,0.5237476846876294,0.37460894510441806,0.5173294943095494
421,1456704148367506,0.26490420618962135,0.369205415578709,0.26069867293120574,0.3043722933100096,0.26075035797028395,0.5105076433909198,0.36292168247282386,0.5271100984980186
422,1456704148374499,0.2662654148273469,0.352138980619322,0.24697829341908853,0.28101847462885005,0.25409066874576497,0.49813933163070584,0.3541175634544072,0.5355323693418755
423,1456704148374499,0.2671187548047774,0.335330805056946,0.23455244029464406,0.25887481335797524,0.24747517896446783,0.48674020437823273,0.34829074387637105,0.5423084096991924
424,1456704148382500,0.2674063466937681,0.319048048684032,0.2235291698250121,0.23813543287486386,0.24090708404381847,0.4763936086695344,0.3454814463356377,0.5471852925346761
425,1456704148382500,0.26708584683741143,0.30354608291976154,0.21399250366209746,0.21896775780422986,0.23439477246933765,0.4671664215055277,0.345674531444372,0.5499556284371268
426,1456704148390499,0.2661319718421363,0.289062788619523,0.2060007948387697,0.2015095721559656,0.22795206036969154,0.45910678909807673,0.34879869093792715,0.5504663897303718
427,1456704148390499,0.2645374360140523,0.27581367541227464,0.19958564034960422,0.185866603947974,0.22159794132523417,0.4522422487001204,0.3547264598439057,0.5486253551634409
428,1456704148404711,0.2623132782255497,0.2639879209182427,0.19475139872620165,0.17211071778288436,0.21535593270098036,0.44657846000427204,0.3632752479281765,0.5444047024665625
429,1456704148404711,0.25948854184040077,0.2537453759826009,0.19147535315487418,0.16027878428115255,0.20925312650128747,0.4420987033300498,0.37420957309616076,0.5378415495971055
430,1456704148412501,0.2561092737114166,0.2452145293478461,0.18970853631871853,0.15037227776013615,0.20331907258553464,0.4387642321468406,0.3872446570879383,0.5290355501745652
431,1456704148412501,0.25223684631254567,0.2384913785093281,0.18937720995797194,0.14235764000589696,0.19758462435230328,0.4365155027004293,0.402051509076923,0.5181438851178162
432,1456704148428215,0.24794566979474994,0.23363912022499694,0.19038496933790688,0.1361674342969367,0.1920808568136602,0.4352742392539226,0.4182635625003956,0.5053741254353706
433,1456704148428215,0.24332042009031532,0.23068855179326064,0.19261541878113073,0.13170229351557516,0.1868381318317939,0.4349462341907477,0.43548484779026947,0.4909755066046356
434,1456704148434429,0.23845294461208277,0.22963905413123886,0.19593534190655443,0.12883363818840582,0.1818853467923332,0.43542474355422117,0.45329959172184653,0.47522918741258685
435,1456704148434429,0.2334390191772472,0.2304600115851422,0.20019827105959415,0.1274071090224973,0.1772493704872005,0.4365943248666227,0.4712830397024839,0.45843805962479905
436,1456704148451430,0.22837513030082554,0.23309252630635652,0.20524834491234215,0.1272466297231947,0.1729546509377814,0.43833496120049237,0.4890131998207349,0.4409166198541408
437,1456704148451430,0.22335544866275192,0.2374513155183413,0.21092433449879264,0.12815899288145663,0.16902297554300838,0.44052630595719733,0.5060831076941509,0.42298132495631763
438,1456704148452430,0.21846913545416846,0.24342672479919883,0.21706371742209055,0.12993884596027255,0.16547336430434803,0.44305185635580135,0.5221131177448672,0.40494174693133805
439,1456704148452430,0.2137980818470396,0.25088682743637186,0.22350668132815374,0.13237394745754202,0.1623220686419361,0.4458028259536554,0.5367626547369565,0.38709273882542977
440,1456704148465431,0.2094151302630638,0.2596796034892912,0.23009993429385714,0.1352505632676162,0.1595826286211284,0.4486814634403085,0.5497408222757529,0.3697077361111847
441,1456704148465431,0.20538277376561226,0.2696352165423184,0.23670019537475054,0.13835887170382,0.15726592078389054,0.45160357711156995,0.5608152638960692,0.353033257023546
442,1456704148472431,0.2017522853958106,0.28056843977497753,0.24317724551052033,0.14149823415149562,0.15538012191193995,0.45450006268297183,0.5698187030838188,0.3372846233369782
443,1456704148472431,0.19856320064929495,0.29228131106620364,0.24941644167324434,0.14448216611114204,0.15393052880771416,0.4573172855593961,0.5766526684194455,0.3226428882004229
444,1456704148488432,0.19584306959635675,0.3045660973922564,0.2553206198544556,0.14714281756848438,0.15291920717047625,0.4600162581368764,0.5812880852441249,0.3092529247622464
445,1456704148488432,0.19360741304471882,0.3172086179678118,0.2608113154020994,0.1493347568602734,0.15234448245994361,0.4625706923590461,0.5837626975567798,0.29722260062031025
446,1456704148494432,0.1918598568712924,0.3299919271799906,0.265829220185445,0.15093786798473496,0.15220031939300455,0.46496415438367134,0.5841755862868623,0.2866229449379764
447,1456704148494432,0.19059246782795575,0.3427003075363909,0.2703338121581589,0.1518592258422052,0.15247565683241676,0.4671866417445955,0.5826792559349089,0.27748921124663356
448,1456704148510764,0.18978635109068612,0.3551234791981889,0.2743021594459358,0.15203389183913274,0.1531537728342617,0.4692309375582666,0.5794698550820445,0.26982274390363165
449,1456704148510764,0.18941257725465674,0.3670609013396514,0.27772699827512665,0.1514246506180614,0.15421175673526907,0.47108910000150556,0.5747761489847963,0.2635935590492911
450,1456704148513436,0.1894334854120509,0.3783260240094816,0.28061426676884316,0.15002077807024228,0.15562016391891348,0.47274942354218497,0.568847908981376,0.25874354762621
451,1456704148513436,0.1898043725231692,0.3887503468942768,0.2829803189570608,0.14783598988260052,0.1573429213657658,0.47419414781962727,0.561944392053365,0.2551902050803809
452,1456704148524956,0.1904755376148952,0.3981871459896443,0.2848490492806774,0.14490576060149013,0.15933753481973723,0.4753980957424942,0.5543235277780476,0.25283079785205864
453,1456704148524956,0.19139460733370747,0.40651473025020035,0.2862491391857794,0.14128421618929704,0.16155562145182506,0.47632831724053454,0.5462323189396899,0.25154688928327756
454,1456704148531950,0.1925090312347932,0.4136390908409274,0.2872116010186434,0.137040790132878,0.16394375820668616,0.47694471684198303,0.5378988193040283,0.25120915599929294
455,1456704148531950,0.19376860346599395,0.4194958234176452,0.2877677492651592,0.13225680554992758,0.16644460026222524,0.4772015573349429,0.5295259001815025,0.251682418552132
456,1456704148547459,0.19512784326129257,0.42405124593452564,0.2879476867771038,0.12702211425605034,0.1689981942125979,0.4770496614681919,0.5212868787916355,0.25283078212515797
457,1456704148547459,0.19654805632118813,0.4273026841706134,0.2877793554167706,0.12143189383249964,0.17154339536640545,0.4764390843708278,0.5133229701139292,0.25452273908506706
458,1456704148553459,0.19799891656932397,0.4292779379156862,0.2872881567502134,0.11558367598546009,0.1740192993426096,0.47532200369147637,0.5057424393915022,0.2566360401342622
459,1456704148553459,0.19945945960713848,0.4300339766776548,0.2864970946125238,0.10957465382069474,0.17636660897600948,0.4736555759013527,0.4986212671309751,0.2590621129765691
460,1456704148570495,0.2009184500477224,0.42965495304647305,0.28542733704277407,0.10349929492125734,0.17852887420540187,0.4714045448412015,0.492005090186201,0.26170980553741646
461,1456704148570495,0.20237414792371,0.42824965414147736,0.28409905556663767,0.0974472745706991,0.1804535658332328,0.4685434641960653,0.4859121585027224,0.26450824686461427
462,1456704148572478,0.20383354080533,0.4259485192286874,0.28253238464891167,0.09150173796257623,0.18209297327309462,0.4650584908332642,0.4803370511659815,0.2674086362808486
463,1456704148572478,0.2053111336182301,0.42290033710865244,0.2807483492450007,0.08573789719816012,0.183404945148611,0.46094878554784596,0.4752549153811028,0.2703847885911555
464,1456704148584465,0.20682740576363617,0.41926872053079783,0.2787696188277676,0.08022196480013997,0.18435350957022736,0.45622758617631165,0.4706260125488451,0.27343230609997476
465,1456704148584465,0.20840705163544387,0.41522844254573316,0.2766209525124835,0.07501041961876567,0.18490941041743117,0.45092298827724997,0.46640037729804634,0.27656634381393935
466,1456704148591465,0.21007710725086534,0.41096169496778345,0.2743292112737479,0.07014959417700421,0.1850505784553687,0.44507841445005414,0.4625224242791261,0.2798180708659216
467,1456704148591465,0.21186503721858788,0.4066542864960384,0.27192285286902146,0.06567556535765494,0.18476253335252277,0.43875271603731025,0.4589353633132382,0.28323006252442984
468,1456704148607501,0.21379683394398488,0.4024917592576224,0.2694309067796632,0.0616143224659098,0.18403869827786593,0.4320198390592423,0.45558528620940164,0.2868509471023903
469,1456704148607501,0.21589517980592252,0.3986553866396951,0.2668815308299885,0.057982177538398155,0.18288060614338947,0.42496798384086215,0.4524247689186498,0.29072967839791
470,1456704148613461,0.2181777319446422,0.3953180163372444,0.2643003321827477,0.0547863735565058,0.1812979776523806,0.4176981883716988,0.4494158226414269,0.2949098176782936
471,1456704148613461,0.2206555854782754,0.3926397348148368,0.2617086616886212,0.05202584022662482,0.17930864946944824,0.410322280952918,0.44653205933290785,0.2994241916747879
472,1456704148630978,0.22333195063506261,0.3907633700793103,0.2591220711597592,0.04969204747335549,0.1769383302128154,0.40296019531441596,0.4437600030605038,0.30429024334794913
473,1456704148630978,0.2262010595241776,0.3898099304549247,0.2565490873971537,0.04776991465804695,0.174220170424702,0.3957367256306747,0.4410995340746559,0.30950631885900265
474,1456704148632479,0.22924731104100063,0.38987417311615435,0.25399042320857057,0.04623874607410442,0.17119415001874286,0.3887778933448481,0.4385634687720954,0.31504905692529533
475,1456704148632479,0.23244466443920625,0.3910205680363069,0.25143871654622174,0.04507317501795309,0.1679063048633274,0.38220715595294336,0.43617628418864557,0.3208719862907043
476,1456704148645484,0.235756299626237,0.3932799534680334,0.24887885989078268,0.04424410496178931,0.16440782616997907,0.3761416873150185,0.43397203793277905,0.3269053991513183
477,1456704148645484,0.23913457752521752,0.3966471730306167,0.2462889466175505,0.0437196365709272,0.1607540707583925,0.370688916429364,0.43199161169101963,0.3330575363161426
478,1456704148651764,0.24252135345802917,0.40107994880956205,0.2436418149246151,0.043465966820183555,0.157003517598448,0.365943452513932,0.43027947335230016,0.3392170712847289
479,1456704148651764,0.24584870613462786,0.4064991823586807,0.24090711660906988,0.04344824468049644,0.1532166971597379,0.3619844644776493,0.4288801866615061,0.3452568112819447
480,1456704148667753,0.24904013257089624,0.4127907908626021,0.2380537858632472,0.04363136807518026,0.14945510970777537,0.35887353773344133,0.427834911472032,0.35103845680339757
481,1456704148667753,0.2520122287277726,0.4198090872771896,0.23505273878682384,0.04398070885105857,0.1457801432855281,0.3566530140523236,0.42717813778388397,0.35641818903276035
482,1456704148673700,0.25467684170388716,0.4273816110990296,0.23187960568892094,0.04446275540955308,0.14225200260905446,0.3553448271274054,0.42693487054867296,0.36125279170490165
483,1456704148673700,0.2569436534672794,0.4353152218740535,0.22851729668692808,0.04504566506504499,0.1389286613578809,0.3549498583403301,0.42711843026187957,0.36540596836166966
484,1456704148691487,0.25872313770129896,0.4434031884952699,0.2249582280010098,0.04569971972375003,0.13586484729536724,0.355447835807577,0.42772897330934767,0.3687544985031483
485,1456704148691487,0.25992980910988533,0.45143293987591077,0.22120607583979882,0.046397680131813654,0.13311106135787604,0.35679778010126134,0.42875277252604993,0.37119389025381405
486,1456704148692488,0.26048564832714377,0.45919407540047597,0.2172769570514267,0.04711503649941457,0.13071262264723169,0.35893896923100826,0.43016222822803063,0.3726432240611243
487,1456704148692488,0.26032354102592625,0.4664861686429125,0.21319995650076604,0.04783015597382024,0.12870872883696508,0.3617923649328527,0.431916511336467,0.37304892937219536
488,1456704148705488,0.2593905372735311,0.47312586056262285,0.20901694424319778,0.048524329361144446,0.12713153085564413,0.36526242162324474,0.4339626946228646,0.37238728707883445
489,1456704148705488,0.2576507301927081,0.478952761865672,0.20478166341841253,0.0491817217967419,0.12600523945946182,0.36923919525862137,0.4362372168769664,0.370665503245878
490,1456704148712488,0.25508756482451356,0.4838337893538407,0.2005581162296176,0.04978923683172631,0.12534530194674715,0.3736006851211558,0.4386675422794541,0.36792125968136874
491,1456704148712488,0.2517054082663908,0.4876657393117579,0.19641831595999204,0.05033631071062462,0.12515770334479936,0.378215373859713,0.44117391407527873,0.36422072937024946
492,1456704148728364,0.24753024741007254,0.4903761016155791,0.19243950575289448,0.050814660516482035,0.1254384547087274,0.38294496634608727,0.4436711450402507,0.3596551611439318
493,1456704148728364,0.24260944608864335,0.49192227631838764,0.18870097758495719,0.05121801281023309,0.12617332959597824,0.38764734769381204,0.44607041733646896,0.35433627322820416
494,1456704148733705,0.23701058620539311,0.49228944826502574,0.18528065551194453,0.05154183726067197,0.12733789796133035,0.3921797773032902,0.4482810735011782,0.3483908099026356
495,1456704148733705,0.23081950880651986,0.4914874337243123,0.1822516224087277,0.05178310423900573,0.12889788856255785,0.3964023165689867,0.4502123850164934,0.3419546745246235
496,1456704148750464,0.22413772833313922,0.48954686139385056,0.1796787629961655,0.051940078963790944,0.1308098914367871,0.4001814608413265,0.4517753006597849,0.3351670483464713
497,1456704148750464,0.21707940649447377,0.48651507625715834,0.17761567789073404,0.052012159132829874,0.13302239269118787,0.40339390904780886,0.4528841956256372,0.3281648552576694
498,1456704148752428,0.20976805667165793,0.48245213459659303,0.17610200648903349,0.05199975844242653,0.135477115784994,0.4059303541959119,0.4534586465910289,0.3210778606542471
499,1456704148752428,0.20233312421172714,0.47742719049453736,0.17516128395920796,0.05190423458971927,0.13811062964987583,0.4076991222272866,0.4534252421411699,0.3140246115321615
500,1456704148765429,0.19490655963164802,0.4715154768724576,0.1747994452527173,0.051727856968369755,0.14085617481281715,0.4086294403726638,0.45271941175514907,0.3071093392253478
501,1456704148765429,0.18761947360467665,0.4647959754749721,0.1750040714234337,0.0514738066570906,0.14364565095017448,0.4086740973785905,0.4512872336614129,0.3004198597247551
502,1456704148772429,0.18059894057558143,0.45734976339058114,0.17574444734550723,0.051146199952948446,0.14641170158663433,0.4078112810243258,0.44908716635791024,0.2940264268636688
503,1456704148772429,0.17396500549568225,0.44925893733104766,0.17697246511419942,0.05075012641908091,0.14908982455859932,0.4060454373334364,0.44609162929801555,0.2879814317049097
504,1456704148787471,0.16782794485913005,0.4406059755564301,0.1786243651562088,0.05029169241400972,0.1516204286664978,0.40340706584645514,0.4422883270524597,0.28231980522334044
505,1456704148787471,0.16228583713457678,0.4314734091539807,0.18062325770176402,0.04977806053022122,0.15395074462872943,0.3999514309062125,0.43768118592853317,0.2770599692789167
506,1456704148793436,0.15742250236774924,0.42194370976296186,0.18288231174105024,0.04921747423453712,0.15603648402446427,0.39575623424973894,0.4322907840497671,0.27220518535765925
507,1456704148793436,0.15330586662929466,0.41209931318899745,0.1853084406250517,0.04861925628050163,0.15784313340055672,0.3909183584440824,0.4261542115195854,0.2677451674690576
508,1456704148811431,0.14998679227418868,0.402022674254172,0.18780626064276512,0.04799376971249032,0.1593467826711234,0.385549838233478,0.4193243676240272,0.2636578519268506
509,1456704148811431,0.14749839537390366,0.39179622480064386,0.19028206258943636,0.047352330699869015,0.16053441790550393,0.3797732409163458,0.41186875806126955,0.2599112435718214
510,1456704148812432,0.14585584995827958,0.38150212945599593,0.1926475280443105,0.04670706306501124,0.16140365191985567,0.3737166547654014,0.4038678948960577,0.2564652785755949
511,1456704148812432,0.14505665473521281,0.3712218017782616,0.19482294733463895,0.0460706873204651,0.16196191681792943,0.36750851570812465,0.39541343409345425,0.2532736630155613
512,1456704148825371,0.1450813161487026,0.36103521182943915,0.19673975128303345,0.04545624357017025,0.1622251934422105,0.3612725373693192,0.38660620458463296,0.25028566869514984
513,1456704148825371,0.1458943884401205,0.3510200514871491,0.19834224325711636,0.04487675588157717,0.1622163896339241,0.3551230165591558,0.3775542766231476,0.24744788672377516
514,1456704148832374,0.1474458063217412,0.3412508324985405,0.1995885001358249,0.044344852852427376,0.1619634949187945,0.3491607514146501,0.36837118859856116,0.24470594839509485
515,1456704148832374,0.14967244331697682,0.3317979939551089,0.2004504893394912,0.04387236386344227,0.16149764101662176,0.34346975061627083,0.3591744142258754,0.2420062241350123
516,1456704148847637,0.1524998295220176,0.3227270959647177,0.20091351041846026,0.04346991296661994,0.16085119304600873,0.3381148524690036,0.3500841114287634,0.2392975055972345
517,1456704148847637,0.1558439746099432,0.3140981702942425,0.2009751045155143,0.043146532771152206,0.1600559842531168,0.3331403180928735,0.3412221474867931,0.23653265677872637
518,1456704148853839,0.15961326586813507,0.30596528177291143,0.2006435888993975,0.04290931960963402,0.15914178788821715,0.3285694090616482,0.3327113425435944,0.23367018473643142
519,1456704148853839,0.16371043264136917,0.29837632265637315,0.19993637859845237,0.042763149345661805,0.15813510023815583,0.3244049068089516,0.32467482094341965,0.23067563940585656
520,1456704148870843,0.1680345743878689,0.2913730171690927,0.1988782533996676,0.04271047044496038,0.15705829197902152,0.32063048635894914,0.31723531862617316,0.2275227220680562
521,1456704148870843,0.17248324326824374,0.2849910660150233,0.19749970797199548,0.04275118683883963,0.15592916629398165,0.31721282627926356,0.3105142840006811,0.22419397707763544
522,1456704148872639,0.17695456540753793,0.2792603278078659,0.19583548508375842,0.04288263743655848,0.1547609366910219,0.3141043209535207,0.30463064356808317,0.2206809702143864
523,1456704148872639,0.18134937871982282,0.27420492869459584,0.19392334795030228,0.04309967243751646,0.15356260574881403,0.31124626001467937,0.2996991709112819,0.2169839211862428
524,1456704148884850,0.18557335095873054,0.26984321590805194,0.19180311134559383,0.04339481974843874,0.152339692708667,0.3085723471967384,0.29582846315697786,0.21311084407849332
525,1456704148884850,0.1895390180057044,0.2661875199262202,0.18951592774502482,0.043758528610218686,0.15109522803180178,0.30601243078347445,0.2931185676970751,0.2090763280191276
526,1456704148891851,0.19316766036982883,0.26324374648521565,0.1871038071828182,0.04417947283989151,0.14983091110563396,0.3034963016052024,0.29165832390182467,0.204900131605816
527,1456704148891851,0.19639092706735956,0.26101085984269734,0.18460932518596188,0.04464489393167108,0.1485483169377639,0.30095739822143963,0.2915225124408358,0.20060576075373543
528,1456704148907855,0.19915212359548762,0.2594803308829773,0.1820754382106231,0.04514096511647289,0.14725004095810282,0.2983362657159907,0.29276894363924816,0.1962191666499843
529,1456704148907855,0.20140710344204926,0.2586356181261739,0.1795452906190107,0.04565316054147764,0.14594068671839458,0.2955836468186546,0.295435656163226,0.19176766188585603
530,1456704148913740,0.20312473707336265,0.25845174293270695,0.17706188109632895,0.046166617335004934,0.14462762460949094,0.2926631236176515,0.29953842595278934,0.18727912058022608
531,1456704148913740,0.2042869672091512,0.2588950197441732,0.17466747936521218,0.04666648110723346,0.14332147396774123,0.28955325528892734,0.30506879061557096,0.18278149880080197
532,1456704148931149,0.2048884803747017,0.25992300484984054,0.17240274909605488,0.04713822713491734,0.1420362823698137,0.2862491639938855,0.31199276988803887,0.17830267738560399
533,1456704148931149,0.20493603168195534,0.26148472252092514,0.17030561497554744,0.047567950999704546,0.1407893977330743,0.28276351357654267,0.3202504123133544,0.17387059073313108
534,1456704148933149,0.20444746594270305,0.26352120729011563,0.16840997506600425,0.047942625181428104,0.13960105435397077,0.2791268194000512,0.3297562320898615,0.16951357058251915
535,1456704148933149,0.20345049321323114,0.26596636920195454,0.16674438631057162,0.04825032236796157,0.13849371866985655,0.27538703513388724,0.3404005289045049,0.16526081313501648
536,1456704148944156,0.2019812958623875,0.2687481560289711,0.1653308475101587,0.04848041037569116,0.13749125849827307,0.2716083858343744,0.35205151757819947,0.16114287499866314
537,1456704148944156,0.20008305494066325,0.27178996183317655,0.1641837844374002,0.048623725348771,0.13661801092472603,0.26786945602072143,0.3645581407555345,0.15719211099024097
538,1456704148954156,0.1978044798419305,0.2750122206926995,0.16330931737324336,0.04867272868381061,0.1358978280229975,0.2642605982569315,0.37775339963605575,0.15344297233095952
539,1456704148954156,0.19519841154324744,0.27833412783663275,0.16270487045402915,0.04862165017649803,0.13535317088988816,0.2608807927512317,0.39145801241769634,0.14993208466872895
540,1456704148968157,0.1923205527090287,0.2816754363223982,0.16235916804475484,0.048466617159011266,0.13500430121296278,0.25783413644981457,0.40548419109053857,0.14669803247543542
541,1456704148968157,0.1892283575963932,0.28495827147437985,0.162252651012487,0.04820576837983459,0.13486859499452578,0.25522614986694525,0.41963931760449824,0.14378079999954385
542,1456704148974159,0.1859800868530043,0.2881088871382442,0.1623583265718353,0.04783935246333907,0.13495998333126266,0.2531600642403629,0.4337293234411956,0.1412208568578291
543,1456704148974159,0.1826339971723308,0.2910592723228261,0.16264303648470688,0.04736981305152799,0.13528851094808,0.2517332125813995,0.4475616512348168,0.13905791809448004
544,1456704148991387,0.17924760186443375,0.29374852191976786,0.16306909548394471,0.046801864336882756,0.13585999339351162,0.2510336169596966,0.460947783223625,0.13732944700369049
545,1456704148991387,0.17587691842586403,0.2961239177198917,0.16359622187211173,0.046142560318760795,0.1366757522145311,0.25113684630121597,0.47370541206793815,0.13606900194113455
546,1456704148993383,0.172575623445278,0.29814171190114397,0.16418365782518676,0.045401359338973636,0.13773241764793373,0.25210320695675936,0.4856603781727977,0.13530455103304465
547,1456704148993383,0.16939406818374628,0.29976763708212134,0.16479235851021734,0.04459018383485795,0.13902180369832515,0.25397531895871533,0.4966485111750909,0.13505688405152894
548,1456704149005388,0.1663781635058296,0.3009771689711333,0.1653871186013167,0.043723473898895755,0.1405308684354131,0.2567761300880895,0.5065175063597508,0.1353382377419754
549,1456704149005388,0.16356819886001767,0.3017555480567892,0.1659385028649655,0.042818230715466796,0.1422417714328519,0.26050742943154276,0.5151289446348126,0.13615122628113768
550,1456704149014161,0.16099769341588552,0.3020975428865673,0.1664244535423229,0.04189404174618134,0.1441320415945942,0.26514893176713555,0.5223605281221698,0.137488139734801
551,1456704149014161,0.15869238419598564,0.30200691991880185,0.16683146561625614,0.04097307527255786,0.14617487720804828,0.27065800159354186,0.5281085571284803,0.13933064414104415
552,1456704149028284,0.15666944773787944,0.30149558544355537,0.1671552581765599,0.04008002993855664,0.1483396055662023,0.2769700665707995,0.5322906266259159,0.1416498890868431
553,1456704149028284,0.15493703587597382,0.30058239932865166,0.16740092117305747,0.039242026506579056,0.1505923203421218,0.28399973677015106,0.534848472855108,0.14440700463521872
554,1456704149034426,0.1534941819359128,0.2992917250605501,0.16758256600541968,0.038488433242257876,0.15289669241258078,0.29164260350650884,0.5357508422029693,0.14755395054051273
555,1456704149034426,0.1523311028620353,0.2976518436585627,0.16772254270958842,0.037850620293936175,0.1552149232170066,0.2997776468797793,0.5349961734099704,0.15103466579595598
556,1456704149051270,0.15142989342002003,0.2956933907032173,0.16785030136809412,0.037361639402955366,0.1575087851480353,0.3082701436490213,0.532614787958297,0.15478645527069826
557,1456704149051270,0.1507655874891246,0.29344797403716166,0.16800097347474607,0.03705582360829349,0.15974067507013318,0.3169749469290506,0.5286702176524063,0.1587415457876795
558,1456704149053270,0.15030754715122713,0.2909471057380552,0.1682137413044804,0.03696830102039766,0.1618746029938845,0.32574001259736424,0.5232593352687527,0.16282874849750334
559,1456704149053270,0.15002112438335335,0.28822153959410635,0.16853006290916367,0.037134420965830854,0.16387705405145475,0.3344100665930521,0.5165111177534746,0.16697517230529269
560,1456704149064270,0.14986951806225013,0.28530104517951194,0.16899182966102574,0.0375890998568369,0.16571768997505967,0.34283032103294286,0.5085840772013837,0.1711079357464285
561,1456704149064270,0.14981572722033976,0.282214579469859,0.1696395418839056,0.0383661043525009,0.16736987903150435,0.3508501413430599,0.4996625259436381,0.1751558191177846
562,1456704149073271,0.14982449091601271,0.2789907537920474,0.17051058514956885,0.03949729689994266,0.16881105368686766,0.3583265556725543,0.48995187798374107,0.17905078993024479
563,1456704149073271,0.1498641103699152,0.27565845974521086,0.17163767672459465,0.041011872357347025,0.1700229019636799,0.365127508678759,0.4796731958312983,0.18272933489067703
564,1456704149088454,0.14990806725230724,0.272247525802355,0.17304754023945476,0.04293561538000537,0.17099141136934398,0.3711347968011933,0.46905721189266586,0.18613355358372022
565,1456704149088454,0.14993637621684658,0.2687893167195945,0.17475986389831052,0.0452902084747299,0.1717068008724344,0.3762466557317213,0.45833807535857074,0.1892120117291115
566,1456704149094455,0.14993663239861021,0.2653172337775278,0.17678659612635542,0.04809262094289297,0.17216338621454794,0.38037998273700685,0.44774708535350255,0.19192039526262558
567,1456704149094455,0.14990473259357567,0.26186710370689903,0.17913162027956292,0.0513546087684274,0.17235942182876862,0.38347217052507276,0.4375066696710038,0.19422202937418895
568,1456704149111451,0.1498452645795271,0.2584774531607089,0.18179082493808674,0.05508235358059099,0.1722969532408692,0.38548252101758645,0.4278248499494414,0.19608832451814326
569,1456704149111451,0.1497715731136455,0.2551896606170391,0.18475255643350844,0.05927626436116296,0.17198170321854164,0.38639320739608035,0.4188903913914926,0.19749919323242118
570,1456704149112273,0.14970551921103603,0.2520479695291852,0.18799841267402523,0.06393095929677739,0.17142300423406137,0.38620975986223594,0.41086877536862043,0.19844345675884156
571,1456704149112273,0.14967694905912407,0.24909934714990772,0.19150431376362995,0.06903543886190847,0.1706337767906946,0.38496105702937,0.40389907302892925,0.19891923319529645
572,1456704149132794,0.14972288472441564,0.24639319148447378,0.1952417663341976,0.07457345588260199,0.16963053635639333,0.3826988080592883,0.3980917515038263,0.1989342712666917
573,1456704149132794,0.14988644638534884,0.2439809204367645,0.19917922822114373,0.08052408319715788,0.16843339132127444,0.3794965143867939,0.39352741684637293,0.1985061683588168
574,1456704149134801,0.15021551664672364,0.2419155017847874,0.20328347964729676,0.0868624728244074,0.16706597366443754,0.37544790698259106,0.39025648266037594,0.19766239185577
575,1456704149134801,0.1507611612172518,0.24025097955777028,0.2075209106599908,0.09356079097465149,0.1655552311821115,0.37066486290761236,0.3882997362191482,0.19644001534857095
576,1456704149147804,0.15157582789813856,0.23904202226040525,0.21185863320991777,0.10058930059039622,0.16393101555304262,0.3652748106881023,0.38764974216074743,0.1948850925497499
577,1456704149147804,0.1527113570093752,0.2383434792376238,0.21626532149363434,0.10791754826253624,0.1622254267748013,0.35941764399928106,0.3882729751884018,0.19305162154597522
578,1456704149153809,0.15421684745141784,0.23820989957865285,0.22071169378845099,0.11551559689849322,0.16047191202028607,0.35324218635076443,0.390112522026393,0.1910000942097108
579,1456704149153809,0.156136431070917,0.2386949496201358,0.22517059014771362,0.123355230192091,0.15870415345488612,0.34690228397043765,0.39309116296068564,0.1887956752476194
580,1456704149169804,0.15850701662268787,0.23985066027202265,0.22961666545979642,0.13141103895378412,0.156954810141256,0.3405526388688335,0.397114647679121,0.1865061062598782
581,1456704149169804,0.16135607905594718,0.2417264433893217,0.2340257763499328,0.1396612836735599,0.15525420230527473,0.3343445189183082,0.4020750136163547,0.1841994693308343
582,1456704149177098,0.1646995903687889,0.24436784076843876,0.23837416923365162,0.14808841984315238,0.1536290367604056,0.3284214914236134,0.4078538434239852,0.1819419601100233
583,1456704149177098,0.16854020536799114,0.24781501516958646,0.24263757706727562,0.1566791853099195,0.1521012663666099,0.3229153235392734,0.4143254068104914,0.17979581148056034
584,1456704149183811,0.17286581847193352,0.2521010542785112,0.24679032426567876,0.1654241913915025,0.15068715844176736,0.31794218469378793,0.4213596678136277,0.17781748356997978
585,1456704149183811,0.17764859420889173,0.25725021282077914,0.2508045424356108,0.1743170265652553,0.14939662647945154,0.3135992779458934,0.42882515205494526,0.17605620274307446
586,1456704149193806,0.18284454924565352,0.2632762399714779,0.2546496145836919,0.1833529509932634,0.14823286345079226,0.30996201994416805,0.4365916589740904,0.17455289854923803
587,1456704149193806,0.1883937340604231,0.2701809222749935,0.25829197217594363,0.19252730700271464,0.14719230401999184,0.30708188199670483,0.4445327818121668,0.1733395566665772
588,1456704149207806,0.19422103647327552,0.2779529300089475,0.2616953483374503,0.20183378836758012,0.14626493228242593,0.30498499393314665,0.4525281743992513,0.17243897594898658
589,1456704149207806,0.2002376152622886,0.28656700648992284,0.2648215419922843,0.21126271033074367,0.14543493596107301,0.3036715926984256,0.4604654815446074,0.171864888874008
590,1456704149213806,0.20634296689887738,0.29598350013774294,0.2676316862740441,0.22079941034903844,0.1446816869793546,0.30311636511853984,0.4682418337788792,0.17162238468988258
591,1456704149213806,0.2124276168221114,0.3061482151856605,0.27008795197262975,0.23042288664415378,0.14398100686977447,0.30326968924006786,0.47576481336180915,0.17170857072617693
592,1456704149230320,0.21837639631896255,0.3169925475583968,0.2721555591816395,0.2401047519464428,0.14330665906320134,0.3040597295740098,0.48295283645121223,0.17211341489185944
593,1456704149230320,0.22407221808085548,0.3284338753750282,0.27380492476471907,0.24980855338194552,0.1426319995505368,0.3053953000667546,0.48973495089529673,0.1728207174817478
594,1456704149236330,0.22940020785948934,0.3403761920813782,0.275013748454644,0.2594894947248301,0.141931710674918,0.307169374259296,0.4960500995461798,0.17380915470784986
595,1456704149236330,0.23425199850827863,0.35271100534033945,0.27576884131081913,0.26909459667437646,0.1411835408276177,0.30926308563479243,0.5018459438034797,0.17505332439576007
596,1456704149243331,0.23852995592245985,0.3653185612924399,0.2760675285560172,0.2785633371546117,0.14036997771533463,0.3115500270975737,0.5070773832884458,0.17652471926017443
597,1456704149243331,0.24215108465096158,0.37806946595722657,0.27591851548346163,0.28782881043016034,0.13947979162775398,0.3139006474125969,0.5117049348234392,0.178192568164491
598,1456704149253331,0.24505034904760067,0.390826752282033,0.2753421821926331,0.29681941977093107,0.13850939236155996,0.31618656677144535,0.5156931462112028,0.1800245235021122
599,1456704149253331,0.24718315280897618,0.4034483981415588,0.27437034440788644,0.30546108085774826,0.13746394879710946,0.3182846842681002,0.519009230924671,0.18198722159168915
600,1456704149267369,0.24852677296876963,0.4157902629522925,0.2730455558327177,0.3136798797879992,0.13635822600992448,0.32008100655178545,0.521622114492413,0.18404678455642529
601,1456704149267369,0.24908065416375885,0.42770938936907066,0.2714200312602627,0.3214051085891494,0.13521710002740917,0.3214741727046509,0.5235020599569923,0.18616935284552952
602,1456704149273332,0.24886560000985308,0.43906759926396416,0.26955426168848073,0.3285725869415099,0.1340757120039761,0.3223786770700226,0.5246209877819652,0.18832173310158098
603,1456704149273332,0.24792199933828818,0.4497352809917338,0.26751539070204555,0.335128166134278,0.13297922287320732,0.3227277971496243,0.5249535503725381,0.19047222247754111
604,1456704149289333,0.24630727754529322,0.4595952217361994,0.2653754272543733,0.34103130420875594,0.13198213382013083,0.3224762219878048,0.5244789746664116,0.19259164010046906
605,1456704149289333,0.24409278473719678,0.46854631076381015,0.2632093785921494,0.3462586021335604,0.13114715785614256,0.3216023548779697,0.5231836325705783,0.19465456859709923
606,1456704149296333,0.24136034170101134,0.4765069357155655,0.2610933903204252,0.35080718891416307,0.1305436669610628,0.320110235692376,0.5210642246012059,0.19664078418478778
607,1456704149296333,0.23819866491730796,0.4834178898720695,0.25910297262571214,0.3546978255198019,0.13024578499781475,0.3180309949018125,0.5181313762820076,0.19853682863017508
608,1456704149303334,0.23469987869479922,0.4892445857124031,0.2573113787872372,0.3579775661846992,0.13033022899050106,0.31542372517141354,0.5144133733002328,0.20033764880334853
609,1456704149303334,0.23095629477438984,0.49397835168954246,0.25578819584509466,0.36072178911015773,0.13087401226094628,0.3123756529121116,0.5099597190764912,0.2020482031738861
610,1456704149313334,0.22705759913365275,0.49763661480301985,0.25459820582974596,0.3630354032216684,0.13195211874136054,0.3090015137780871,0.5048441898958589,0.2036849139458357
611,1456704149313334,0.22308853583024346,0.5002618585132841,0.2538005653001388,0.3650530568168748,0.13363524679241484,0.3054420706553833,0.4991670754030838,0.20527682943027292
612,1456704149328380,0.21912712524555672,0.5019193759441628,0.2534483230558254,0.3669382136677764,0.1359877068150658,0.30186174939770943,0.4930563150917058,0.20686635264297445
613,1456704149328380,0.21524340889835772,0.5026939712335162,0.2535882563588958,0.36888101943481777,0.13906554141424834,0.2984454056211027,0.4866672826350444,0.20850939397203141
614,1456704149333541,0.21149868428109167,0.5026858592691095,0.2542609671414804,0.37109494555901307,0.14291492002187567,0.2953942748989071,0.4801810501249007,0.21027483206880176
615,1456704149333541,0.20794518098645845,0.5020060640475896,0.2555011514502672,0.3738122427002878,0.14757084054908437,0.2929211883434124,0.47380109215542693,0.2122432272346379
616,1456704149349735,0.20462612234897176,0.5007716283295705,0.2573379412898997,0.37727824534893867,0.15305614838724146,0.2912451445086079,0.46774854390091164,0.21450481281499006
617,1456704149349735,0.20157610471967424,0.49910092983346227,0.25979522021271717,0.38174457304795756,0.1593808600393316,0.2905853231623949,0.4622562590189065,0.21715686323008543
618,1456704149356759,0.19882171100863905,0.497109354242931,0.2628918382602421,0.3874613254939276,0.16654176029287623,0.29115462892044247,0.45756197990669134,0.2203005802798447
619,1456704149356759,0.1963822639563081,0.49490551685052736,0.26664169548499594,0.3946684786867496,0.17452223450278478,0.29315288019036906,0.4539009374503195,0.2240376509390908
620,1456704149372749,0.19427062386154498,0.4925881749930526,0.2710537027800485,0.4035868019941013,0.18329230259284138,0.2967598123166881,0.4514981781275997,0.22846662259174186
621,1456704149372749,0.19249394944139184,0.49024393800237154,0.2761316373772588,0.4144086712024119,0.19280883265618579,0.3021281299790965,0.4505609019656727,0.23367922709936292
622,1456704149374547,0.19105436711990867,0.4879458448089645,0.2818738842597555,0.42728914350222363,0.20301592003871832,0.30937689899996323,0.4512710891098888,0.23975676653165678
623,1456704149374547,0.18994952106239052,0.48575283036325084,0.2882730123724492,0.4423376197362684,0.2138454168157912,0.3185855876734507,0.4537786900525702,0.24676665177540438
624,1456704149387743,0.18917299094371584,0.4837100476504004,0.29531510410974643,0.45961037608694233,0.225217589688378,0.32978904451464935,0.4581956470635371,0.25475916680620125
625,1456704149387743,0.18871456686757548,0.48184996180476786,0.3029787685235097,0.4791042151344082,0.2370418800456426,0.3429736468647274,0.4645909904966693,0.26376452498575675
626,1456704149393749,0.1885603725163003,0.480194085796956,0.3112338362801234,0.5007514718780517,0.24921774239023192,0.3580747973441789,0.47298720650833925,0.273790293006341
627,1456704149393749,0.18869283859740243,0.47875518210877277,0.32003983089432353,0.5244166125630992,0.261635542684348,0.37497589744647764,0.48335800693522024,0.2848192783731905
628,1456704149410551,0.18909054923838997,0.47753971661860006,0.3293443864648499,0.549894669633192,0.27417750224673765,0.3935088835941006,0.4956275593991682,0.29680799637352717
629,1456704149410551,0.18972800634383807,0.47655032498713995,0.33908181280947125,0.5769117510302487,0.2867186782136742,0.41345635571864087,0.5096711685457326,0.3096858393266758
630,1456704149416551,0.19057537311243963,0.4757880489949246,0.34917201038174667,0.6051278416379269,0.2991279849680888,0.43455525933491057,0.5253173445168767,0.32335505696874356
631,1456704149416551,0.19159826710882433,0.4752541367393047,0.3595199297182681,0.6341420718235264,0.31126928476754234,0.4565020125046742,0.5423511505042433,0.33769162453392837
632,1456704149433096,0.19275767974367916,0.4749512747398887,0.3700157497098121,0.6635005448683428,0.32300260261814706,0.4789589170302765,0.5605186854967454,0.3525470345137377
633,1456704149433096,0.19401010229003224,0.47488420760879524,0.38053590276758187,0.6927066803034819,0.33418553614279983,0.5015616730251982,0.5795325399980462,0.36775100873861616
634,1456704149434569,0.19530793139640418,0.4750597797197629,0.3909450043620985,0.7212338560423832,0.34467492710416875,0.5239278274636366,0.599078076025122,0.3831150909825345
635,1456704149434569,0.19660020509280168,0.47548648744613536,0.40109866369013497,0.7485399465605196,0.3543288416554452,0.5456660058103004,0.6188204235423624,0.39843704423126935
636,1456704149447570,0.19783368887614947,0.47617364144234453,0.4108470732565013,0.7740831849691833,0.3630088807592918,0.5663857668979299,0.6384121139112828,0.41350594394109824
637,1456704149447570,0.19895430146445708,0.4771302040070276,0.42003920262145245,0.7973386471954885,0.3705828147227264,0.5857078704588375,0.6575012372969552,0.4281078332360054
638,1456704149453576,0.1999088496660403,0.478363320245411,0.4285273616322067,0.8178145893350808,0.3769275075654363,0.6032746697358277,0.6757399011317434,0.4420317829839139
639,1456704149453576,0.2006470318106473,0.47987654908153543,0.43617186446752754,0.835067877215112,0.381932071102302,0.6187602663570373,0.6927926185593088,0.45507617340555445
640,1456704149469580,0.20112366072482876,0.48166784134727136,0.4428455263606785,0.8487178085220275,0.38550116366540926,0.6318800099741029,0.7083441466156677,0.4670549946335632
641,1456704149469580,0.20130104072131763,0.4837273895120769,0.44843775046112216,0.8584576935017038,0.38755831366488375,0.6423988973738979,0.7221063091153181,0.4778039695072083
642,1456704149476801,0.20115140690692357,0.48603554421427664,0.4528579966186584,0.8640636142140256,0.3880490999157347,0.6501384314932273,0.7338235072456112,0.4871863348374443
643,1456704149476801,0.2006593035481296,0.48856102012710495,0.45603846202054943,0.8653998776149843,0.38694397739691666,0.654981553882151,0.74327686489454,0.49509815561675014
644,1456704149492790,0.19982374434621408,0.4912595959705419,0.4579358488172343,0.8624208780634013,0.38424052483785787,0.6568753751145517,0.7502871506849966,0.5014730574224712
645,1456704149492790,0.1986599656026444,0.49407347322974954,0.45853214744604626,0.855169378504023,0.3799649149826249,0.6558315854690256,0.7547167068533135,0.5062862271465174
646,1456704149495571,0.19720056715992507,0.4969314095533486,0.45783442293417875,0.8437715193624765,0.37417245340012867,0.6519245918055911,0.7564706280020935,0.5095574669701909
647,1456704149495571,0.1954958530454746,0.4997496840827979,0.4558736445769992,0.8284290851256011,0.3669470846897156,0.6452875438134694,0.7554974059672074,0.5113530274832534
648,1456704149507801,0.19361323371147324,0.5024338858143362,0.4527026388662109,0.8094096750509515,0.3583998332915187,0.6361064684383325,0.7517891842624285,0.511785919642203
649,1456704149507801,0.1916356143437892,0.5048814570820539,0.4483932792271253,0.7870354635263229,0.3486662380439108,0.6246127673082209,0.7453816472240696,0.5110144260245044
650,1456704149513797,0.18965875768072754,0.5069848770638447,0.44303306437653384,0.7616712320854095,0.33790293597087256,0.6110743980602984,0.7363534521240673,0.5092386140634185
651,1456704149513797,0.18778768508158314,0.5086353207697355,0.4367212740427976,0.7337123116539115,0.32628361650736193,0.5957861565957175,0.7248250518553392,0.5066948042002155
652,1456704149529792,0.18613226737495722,0.5097265705891961,0.42956491704044014,0.7035729719651569,0.3139945864062719,0.5790595584097858,0.7109567560419819,0.5036481408055387
653,1456704149529792,0.1848022332072737,0.5101589075889992,0.4216747050561426,0.6716756461101172,0.3012301658806995,0.5612128404893777,0.6949459043990434,0.5003835983134564
654,1456704149536735,0.1839018659274191,0.5098426958077893,0.41316129629057263,0.6384412319515039,0.2881880931801352,0.5425615663777578,0.6770230612342408,0.4971958763200339
655,1456704149536735,0.18352467361015903,0.508701414604664,0.4041320387026519,0.6042806094899317,0.27506506628966465,0.5234102427177898,0.657447201301886,0.494378682009286
656,1456704149552724,0.18374831276186393,0.5066739903745539,0.39468838560703695,0.5695874527029605,0.2620525187133606,0.5040452687042254,0.6364999544364551,0.49221388683153594
657,1456704149552724,0.1846300287614293,0.5037164003740131,0.38492406630413123,0.5347323717555881,0.2493327211505768,0.4847294425801418,0.6144790835690437,0.4909609978220463
658,1456704149554510,0.1862028456074825,0.49980262580531676,0.37492400246984886,0.5000583803775975,0.23707530710727176,0.4656981367747841,0.5916914485107637,0.4908473151270372
659,1456704149554510,0.18847269781547354,0.49492508739800833,0.36476389150289806,0.4658776398834492,0.2254343121900673,0.44715713025256554,0.5684457439693342,0.4920590772713356
660,1456704149567730,0.1914166535403694,0.48909469588118804,0.35451033479899324,0.43246938716244115,0.2145457841848695,0.429281970922512,0.5450453145314529,0.4947338517681354
661,1456704149567730,0.19498233347148275,0.4823406080587113,0.3442213692735473,0.40007891250019234,0.20452597675394782,0.41221865481416975,0.5217813607205188,0.4989544190296757
662,1456704149573723,0.19908858536589227,0.4747097279949272,0.333947266761476,0.36891741885489354,0.19547010341535373,0.39608536470299904,0.49892685394688296,0.5047444009897726
663,1456704149573723,0.2036274274596813,0.46626595586612407,0.3237314925749331,0.33916257325871346,0.18745161211612435,0.3809750036451814,0.4767314555164275,0.5120658718472364
664,1456704149591513,0.20846722331690434,0.4570891693845411,0.31361174031615996,0.3109595623198206,0.18052194311432587,0.3669582723802207,0.45541767408339057,0.5208191403854975
665,1456704149591513,0.213456996736409,0.4472739239670029,0.30362096994636967,0.2844224919576538,0.17471074271446557,0.3540870604535373,0.4351784023022654,0.5308448143453585
666,1456704149596514,0.21843174202466645,0.43692788041638525,0.29378837635946836,0.2596360167861561,0.17002651010367456,0.3423979434911354,0.41617586540175955,0.5419281611755593
667,1456704149596514,0.22321853640212785,0.4261700060744943,0.28414022100588626,0.23665712776556744,0.16645764974380342,0.33191560433306627,0.39854191329717886,0.5538056802703332
668,1456704149612513,0.22764321922994776,0.4151286269035463,0.2747004797927441,0.2155170548853232,0.16397389034985757,0.3226560280619007,0.3823795081175934,0.5661737095270161
669,1456704149612513,0.2315373656722716,0.4039394153783657,0.2654912989143936,0.1962232560012581,0.16252801694186786,0.3146293577281332,0.367765203978373,0.5786988087939934
670,1456704149614514,0.23474524909619854,0.39274338171412665,0.25653329375720013,0.1787614716666186,0.16205784895048972,0.3078423245833965,0.3547523796923779,0.5910295897648303
671,1456704149614514,0.23713046006783808,0.38168491025931844,0.24784575112582777,0.16309783179400428,0.1624883915470776,0.30230017247921126,0.3433749574122239,0.6028095804288255
672,1456704149628311,0.2385818367638793,0.37090986315059654,0.23944679084785658,0.14918100084873478,0.16373409253047477,0.2980079914944669,0.33365131503130396,0.6136906112460654
673,1456704149628311,0.2390183711193246,0.36056375613487013,0.2313535204338012,0.13694434491395532,0.16570114725169624,0.29497139066016015,0.3255880861674275,0.6233461065573963
674,1456704149633412,0.23839279932720767,0.350789988279447,0.22358219076992203,0.12630810179903193,0.16828979998932253,0.29319649037384105,0.3191835547439113,0.6314836075006754
675,1456704149633412,0.23669366999765185,0.34172808262177123,0.21614833734830824,0.11718153709904162,0.17139658962964235,0.2926892808412174,0.3144303954295229,0.6378558887136865
676,1456704149649423,0.23394579747926725,0.3335118789994955,0.20906687546477706,0.10946507084452103,0.1749164844474502,0.2934544356043736,0.31131757407660543,0.6422701510592325
677,1456704149649423,0.2302091338151402,0.3262676160620896,0.20235211908367576,0.10305235542542525,0.17874484874652535,0.2954936708553225,0.30983129111593993,0.644594904954837
