,timestamp,x,y,z
0,1456704146116973,0.0017307208082803537,0.01681586283978745,0.016068734196572006
1,1456704146138479,0.039369775474164106,0.03641784085458231,0.07265121379384365
2,1456704146162481,0.07072540455731739,0.055283987924058885,0.1171257335671326
3,1456704146177482,0.09111432881809303,0.07310767327373333,0.14203527581253775
4,1456704146198488,0.0989698807084583,0.08959670555275218,0.1467855572643301
5,1456704146222999,0.09562151185422456,0.10404240004653184,0.1370037409866461
6,1456704146268507,0.08424187739021331,0.11509042999596235,0.12163964445766265
7,1456704146277508,0.06877822979146232,0.12102582308596621,0.10932572962762829
8,1456704146285508,0.05342036725639943,0.1205312754710248,0.1054170346188017
9,1456704146300511,0.04249931407934385,0.1135475076828347,0.11059141928361103
10,1456704146321224,0.04026361386964355,0.10178320768040881,0.12128340542593322
11,1456704146342727,0.05016846141396922,0.08863693965391252,0.13165978015120222
12,1456704146387010,0.07387362785544542,0.07860071943115154,0.13633383444778885
13,1456704146387724,0.11045500568968447,0.07635295459786454,0.13270559192810685
14,1456704146402044,0.1561505153788318,0.08568561399401967,0.12197662121057341
15,1456704146418016,0.2046314658995361,0.10833791341614135,0.10853356999302906
16,1456704146440527,0.2477739746333735,0.14292694369271824,0.09811265912650506
17,1456704146461534,0.27712456336291647,0.1844615838461588,0.09554751243419625
18,1456704146477544,0.28609898807162837,0.22505593345793862,0.10293605561399415
19,1456704146508538,0.27225109837312345,0.2560205542203089,0.11885883322402872
20,1456704146522353,0.23848842807445045,0.2706254440961638,0.1388750024804657
21,1456704146537556,0.19252826198581677,0.2662561156617816,0.15702424701939016
22,1456704146560559,0.14472052110735467,0.24501844634581316,0.16774389632830283
23,1456704146582559,0.10495572738449072,0.2127540642158806,0.16759871448530042
24,1456704146605561,0.07971164305129275,0.17709991285863086,0.15635401611086805
25,1456704146621598,0.07037908818009635,0.14536419680722462,0.13707754090787974
26,1456704146641864,0.07356957076501726,0.12282050146325116,0.11521565756494007
27,1456704146664867,0.08320028120725928,0.11175492616095971,0.09693941368521254
28,1456704146680865,0.09329057926998209,0.11137942154568971,0.08728021959276239
29,1456704146701875,0.10010848422084898,0.11862542653788923,0.08859654242309807
30,1456704146725402,0.10280041581391745,0.12967193519613945,0.0998704777002336
31,1456704146741165,0.10263817420516741,0.14165720416656571,0.11723060405697806
32,1456704146770094,0.10178311297665095,0.15366437602523708,0.13572506377413152
33,1456704146787124,0.10244539560665315,0.16629534177177188,0.15169744397846247
34,1456704146800893,0.10666444439104188,0.18002596546393881,0.16455722178241716
35,1456704146822357,0.11627124974679774,0.1934696094429704,0.17684073301467007
36,1456704146845318,0.13246075331725574,0.2029038061205246,0.19235818865734963
37,1456704146860318,0.15492668886054298,0.20366410813142974,0.21339057404943662
38,1456704146882454,0.1811834598356077,0.19276366798164343,0.23855065189011948
39,1456704146905454,0.2067652188766909,0.1712476354454009,0.26260309593734477
40,1456704146921272,0.2263714034488815,0.14489128597573916,0.2783986417419127
41,1456704146942526,0.23542623907481597,0.1227275327618883,0.27982219959499893
42,1456704146973311,0.23146055555707432,0.1139391164066765,0.26417820522211144
43,1456704146981311,0.21500065966242374,0.12433712349507678,0.23303463764204038
44,1456704147004448,0.18979700722851187,0.1537819234714183,0.1915630212661648
45,1456704147025263,0.16215980946302658,0.19559214641307948,0.14701498115340533
46,1456704147041427,0.13925574724204492,0.23835890324251194,0.10700379438442359
47,1456704147063163,0.12671456700997977,0.2696828701323151,0.078033263525216
48,1456704147086506,0.12646701762772647,0.2804117660422246,0.06449961632760759
49,1456704147101164,0.1358479157997638,0.2675937294392161,0.06823727803442238
50,1456704147123179,0.14853244766946894,0.23508144673875522,0.08852968098319158
51,1456704147145191,0.157122919759676,0.1920746049793067,0.12237571634596905
52,1456704147161189,0.15649990725016608,0.15075346435857206,0.16480973870889776
53,1456704147190214,0.1466144934054435,0.12397072717628758,0.2092511292614858
54,1456704147205192,0.13339877476088008,0.12313245317384124,0.24808695281402407
55,1456704147221197,0.12704531166197364,0.15575331123683406,0.27377976484947436
56,1456704147243203,0.13797991127039183,0.22244704602083235,0.2805735915885256
57,1456704147265205,0.17201500912155557,0.3143103671971684,0.2663935798309932
58,1456704147281206,0.22680797999057187,0.41275083512856714,0.23413480540542672
59,1456704147305207,0.2914070299672769,0.49346130271207295,0.1915299099365521
60,1456704147324224,0.3494075810928055,0.5341110338794848,0.14923191025146187
61,1456704147341408,0.3846176024175448,0.5227246982733973,0.11752067524997946
62,1456704147363236,0.386877287837741,0.4626630721817857,0.10285070196782156
63,1456704147386414,0.35546855114651393,0.3714878624414159,0.10580116661282349
64,1456704147408238,0.2986598695618432,0.2740101551069421,0.12142979963196157
65,1456704147423247,0.2298662368269631,0.19280015206697113,0.1417375796275002
66,1456704147445264,0.16254470267300836,0.14061519237635847,0.15880576922055603
67,1456704147467265,0.10628194853733076,0.11785906863373925,0.1670729576380672
68,1456704147484266,0.0654244067136663,0.11537474928663226,0.16416755842984268
69,1456704147505271,0.03997539417918341,0.1204621664593499,0.1507337345722243
70,1456704147528973,0.02752102090890541,0.12310406135255335,0.12992041880464222
71,1456704147542943,0.025010293551532285,0.11989458075220052,0.10675010703605609
72,1456704147565677,0.029781334250925006,0.11441024665133719,0.08717488589142545
73,1456704147588680,0.03974356238579699,0.11417347321088177,0.07668970960849318
74,1456704147603681,0.052983301657965096,0.1257020559858918,0.07871313180794627
75,1456704147626189,0.06728805681199794,0.15007748369319385,0.09320495909593557
76,1456704147648697,0.08009536200350154,0.18139886254965001,0.11608083690691458
77,1456704147663699,0.08909002794322637,0.2091462657093025,0.13993525505256962
78,1456704147685700,0.09320066028583751,0.2233626343085342,0.1562667486764554
79,1456704147708701,0.0933627577869707,0.21977802150470296,0.15869750119782766
80,1456704147724215,0.09242099471203281,0.20179119843530713,0.14586472897135955
81,1456704147752723,0.09400221088515866,0.17812734996656324,0.12239423460482522
82,1456704147768724,0.10082311967000027,0.1578750031586994,0.09714464393654133
83,1456704147783724,0.11326999467999505,0.14621765454185215,0.07939904773921373
84,1456704147805725,0.12896008837982384,0.14326877863049028,0.07484251214438012
85,1456704147830931,0.14349782268336975,0.1459291018086679,0.08324132764574275
86,1456704147844136,0.1521101528514034,0.15067675213906048,0.09884439202149935
87,1456704147866145,0.15151529096615504,0.15509796642319698,0.11323417756895297
88,1456704147889134,0.14128974148160367,0.15756973148493902,0.11920094059618362
89,1456704147904135,0.12414605174040798,0.15626438326287775,0.11371612878002403
90,1456704147926176,0.10491328978323902,0.1490593540048154,0.0986361710407889
91,1456704147949192,0.0885532973391516,0.13484842242566472,0.079119068908369
92,1456704147970495,0.0780781341745221,0.1152765785387257,0.060946615785182505
93,1456704147986193,0.07344575879458311,0.09533253804769586,0.048253961403070665
94,1456704148009195,0.07208794874731277,0.08194589886699966,0.04261227294731193
95,1456704148030213,0.07078016991827207,0.08110010650710506,0.043542541180204904
96,1456704148046221,0.0677247989072952,0.09495503599381297,0.04986847913219304
97,1456704148069223,0.06358895250268748,0.1205154595983745,0.061052928852789456
98,1456704148090224,0.06090331210319249,0.15064889589796357,0.07778846878759345
99,1456704148106225,0.06225520055783851,0.17724503991586266,0.10154983573395068
100,1456704148129252,0.06845520781257326,0.19533522974606235,0.1333736052521679
101,1456704148150260,0.07786549177846072,0.20618268488681432,0.17246466515604783
102,1456704148166261,0.08733430310840284,0.21720702561431848,0.21520157777108154
103,1456704148188262,0.09412173752721983,0.23794494658397733,0.2550288838235902
104,1456704148209263,0.0975289584213766,0.2738765235624983,0.2837911636644846
105,1456704148225814,0.09919421324548053,0.3218959410053188,0.2948181278269742
106,1456704148249375,0.102027850632016,0.37052533754992106,0.2869013846371385
107,1456704148270390,0.10866392188474908,0.40499221690407305,0.26672440487387106
108,1456704148286388,0.12037150679163482,0.4143122732108814,0.24713391536589965
109,1456704148309392,0.13674490468586264,0.3966022901107183,0.24100890458196497
110,1456704148330028,0.15595565880382012,0.3602228600165453,0.2538987830443573
111,1456704148345544,0.17531122926046858,0.32059235416517856,0.2801059443573447
112,1456704148368500,0.19195377705472455,0.29419236747521527,0.3050875748019973
113,1456704148389710,0.2034012355904326,0.2921290532495724,0.31319366819624445
114,1456704148405501,0.20766363575064534,0.315748799971466,0.29636775773187546
115,1456704148429716,0.20318773279500363,0.35600021804029264,0.25869702896875724
116,1456704148452430,0.18923456303115854,0.3966899993203802,0.21423262386056516
117,1456704148466431,0.1667512368556718,0.4204020237901229,0.17964284467885125
118,1456704148489432,0.13894682366255667,0.41507745378070354,0.1661033124759738
119,1456704148512435,0.11077684437575917,0.37884530103347686,0.17469459331769985
120,1456704148525949,0.08739470599812144,0.3208917489978288,0.19713082217408082
121,1456704148548459,0.07238323320170784,0.25765374062119495,0.22070969059146958
122,1456704148571458,0.06668219386410916,0.20604582940128824,0.23450739624553132
123,1456704148585459,0.06871175888226333,0.17707510615032254,0.23377236040042623
124,1456704148608492,0.07553818936333123,0.17273614120915018,0.22093105965676701
125,1456704148631978,0.08434776029904147,0.18695171080946416,0.20345896547046766
126,1456704148645484,0.09337480218309595,0.20921169362142422,0.18996067996895874
127,1456704148668486,0.10190756991147304,0.22875778393653476,0.18605339634753418
128,1456704148691487,0.10967627272951665,0.2376883088060064,0.1916421370566934
129,1456704148705488,0.11622767707019138,0.23238084639788628,0.2009189764991094
130,1456704148729207,0.12068775630592309,0.21341933554989673,0.205340994831282
131,1456704148751464,0.12197270833082995,0.18456972481116496,0.19811092911622383
132,1456704148766429,0.11928869653217296,0.1513347837199041,0.17759826702776316
133,1456704148788461,0.11262377650649413,0.11939544017908221,0.14780342853441403
134,1456704148812432,0.10291457233459918,0.09314300484245597,0.11595417736781075
135,1456704148826373,0.0917740866673452,0.07465923433975956,0.0890105952159983
136,1456704148848638,0.08093853178834376,0.06356261732604233,0.07106853108922516
137,1456704148871639,0.07168346858198664,0.05780495433008163,0.06264260693394487
138,1456704148885639,0.06441682066504549,0.054998760759581024,0.06161978269707993
139,1456704148908640,0.05862640887194843,0.05361875598748895,0.06499757207219696
140,1456704148932149,0.05329088364199635,0.05358179144498762,0.07041526376090781
141,1456704148953156,0.04764515515636061,0.05605345316143523,0.07679023465835641
142,1456704148969157,0.04190648424721269,0.06261876047370941,0.08393142440183576
143,1456704148992350,0.03747980102673448,0.07415689869250974,0.09158374168907163
144,1456704149013161,0.03643979868856352,0.08990497687877747,0.09867213546103627
145,1456704149028963,0.04054040372573812,0.10719967117332328,0.1033697536297964
146,1456704149051270,0.050251759556486926,0.12215405920124014,0.10402392908104253
147,1456704149073271,0.0642550731278961,0.13109102327102615,0.10027971501008413
148,1456704149088454,0.0796171809249315,0.13209987993650085,0.09352506040231877
149,1456704149112273,0.09263761271173895,0.12590153661470177,0.08630872208466625
150,1456704149133802,0.10008774898878564,0.11549314765915031,0.08118882744489575
151,1456704149148803,0.10033095912471166,0.10469363640385107,0.0798182221816626
152,1456704149170804,0.09383051518336347,0.09635919815439432,0.08272198162315715
153,1456704149192804,0.08286309599493671,0.09124541318871109,0.08956587411526001
154,1456704149208806,0.07064509449495031,0.08806739255643363,0.09935155879145705
155,1456704149230820,0.060282320772298816,0.08455873041397087,0.11024100459590261
156,1456704149252330,0.05390330924592494,0.07882204755933611,0.11936061382927303
157,1456704149268332,0.052181809045542225,0.07026670969595632,0.12327027631938467
158,1456704149290333,0.054329368743491965,0.05978334966303989,0.11937179733274436
159,1456704149312334,0.0585173053142991,0.049255454469926185,0.10769931068788943
160,1456704149328990,0.06255070129227416,0.04084328689851998,0.0919964475552292
161,1456704149350546,0.06457284176589391,0.036481095109208606,0.07916909408774131
162,1456704149373547,0.06365895618332233,0.03769791631502917,0.07701085451383477
163,1456704149388548,0.0602175296003067,0.045543778136577895,0.09106169318819647
164,1456704149410551,0.05606818714026278,0.06039928418489351,0.12203009356441985
165,1456704149433562,0.05403135889662891,0.0816872325531148,0.16509324968130282
166,1456704149448569,0.057004468995109574,0.10766188990942455,0.21165827334013723
167,1456704149470570,0.06678855288749405,0.13539744471909157,0.2530402565813095
168,1456704149493571,0.08316419721491627,0.16103796676153762,0.2843079258728645
169,1456704149508572,0.10369449983359276,0.18047968517875157,0.30598094611402615
170,1456704149531045,0.12445160697359221,0.19072158259017663,0.32224280025506874
171,1456704149553510,0.14148902268359304,0.19177677729685888,0.3367159823632576
172,1456704149568511,0.15252102548691243,0.18830042400728086,0.3488042703069254
173,1456704149592513,0.1579838505252222,0.18954079436864535,0.35329239908388527
174,1456704149613514,0.16071425555112526,0.2066154830556634,0.3435676988962708
175,1456704149628929,0.16417414473656972,0.24758580730198712,0.31644580025736296
176,1456704149650417,0.1701608698361126,0.31243467179536855,0.27564383513778623
177,1456704149673419,0.17742437013697487,0.3906449840468174,0.23167371796661448
178,1456704149688419,0.1820767428645756,0.4631838419834981,0.19789201833243286
179,1456704149712421,0.17953378212667692,0.508693463340273,0.18468829291519823
180,1456704149733429,0.16685115711008547,0.5114574991573199,0.19486948520945865
181,1456704149748434,0.1442706287446676,0.46753172469038967,0.2224420706164498
182,1456704149770435,0.11539644515127484,0.38619420531768434,0.25507314867008174
183,1456704149793436,0.08608499000787913,0.2861695020265428,0.27897621716549104
184,1456704149808437,0.0625305740501642,0.18858279347510196,0.28429166282236423
185,1456704149838865,0.04924522160884688,0.11000896923364815,0.26887094128140426
186,1456704149853866,0.04767291353580699,0.0585371995247136,0.23873804492274342
187,1456704149868866,0.05591156646630202,0.03377467193031592,0.20483095557302475
188,1456704149890868,0.06953416601629474,0.029628386743084923,0.17763948345047273
189,1456704149913870,0.08311627247098748,0.03789899039521147,0.16264792093798153
190,1456704149934959,0.09192819612028555,0.05121160622757712,0.1588769637985077
191,1456704149950954,0.09326128988846133,0.06467314156750321,0.16076834745196666
192,1456704149974956,0.08700117036922758,0.07623564573342849,0.16180079969481476
193,1456704149995257,0.07536254709783925,0.08604202887385722,0.1576983133872169
194,1456704150010956,0.06203315537188516,0.09519429361358162,0.14781765569803718
195,1456704150033966,0.051098785948615416,0.10446358969477676,0.13454357311741688
196,1456704150055305,0.04599853807045577,0.11342697025651506,0.12149827078804351
197,1456704150070975,0.048620250135217695,0.12032942323835681,0.11163748203769394
198,1456704150093976,0.05867174785875503,0.12268194357229072,0.10599923528612046
199,1456704150114978,0.07356886183444412,0.11835917863419766,0.10345830941188824
200,1456704150131021,0.08905520170384829,0.10679342528543753,0.10149007042844914
201,1456704150154249,0.10050331922023958,0.089731825212975,0.09755075953310444
202,1456704150175247,0.1044531768249284,0.07105863947707747,0.09035901104664588
203,1456704150191250,0.09971843021698952,0.05557571757660903,0.08042645743960325
204,1456704150214242,0.08757661110517341,0.04723452058282871,0.069648536197209
205,1456704150234401,0.07106115266393041,0.0476626329127324,0.060296479037539576
206,1456704150251409,0.053810692981390996,0.055655335657099875,0.054012755736067855
207,1456704150274408,0.039024286742288715,0.06779194524173823,0.051291886413374545
208,1456704150295409,0.028864831974372344,0.07984519002173558,0.051556998923106834
209,1456704150311410,0.02435480083888969,0.08837115263782104,0.053595930551123896
210,1456704150334138,0.025575825805431517,0.09182128865438649,0.056018451706051846
211,1456704150357147,0.031898469657816265,0.09071006346801971,0.057545569361370494
212,1456704150371148,0.042060823454749936,0.0867978005608667,0.05716978492168984
213,1456704150394149,0.05413106624635213,0.08178071826866355,0.05432909803164834
214,1456704150417150,0.06557901478450925,0.07630889284635624,0.04914213325854396
215,1456704150431162,0.07367145497335559,0.06998043235749403,0.04258350790223833
216,1456704150453456,0.07616461014602523,0.06233852557654123,0.03643724911141812
217,1456704150476456,0.0720090553822851,0.05426369096928393,0.032981008048341164
218,1456704150491457,0.06176461844546098,0.04891920523624332,0.03447241938399784
219,1456704150520044,0.047608349395508495,0.05160097421073557,0.042539635564188265
220,1456704150536534,0.032948185015873,0.06824022023898978,0.05758636040276151
221,1456704150550535,0.021668007650242974,0.10280307465990567,0.07838988395967025
222,1456704150574536,0.017113853603179636,0.15445549745105552,0.1021868757061213
223,1456704150596538,0.021119790358069834,0.2159152248178046,0.12555994274301918
224,1456704150610538,0.03345057569471569,0.27435634964173633,0.14610733534732967
225,1456704150634049,0.05189518534015624,0.3152099642461462,0.16415769219378765
226,1456704150656556,0.0730050039955603,0.327620408410125,0.183225498107962
227,1456704150671556,0.0932565605865637,0.3091966636967148,0.2082830547164149
228,1456704150693558,0.11024290356313175,0.2678839367056866,0.24232358979798665
229,1456704150716560,0.12341648969283435,0.2201478315903859,0.2831563268618789
230,1456704150738578,0.13404741517888333,0.18617540872806596,0.3227543694261248
231,1456704150753579,0.14438838999445044,0.18361024186008798,0.3502969162210227
232,1456704150776580,0.15634772797383015,0.221600614346253,0.3577936205526987
233,1456704150798581,0.1702009418219866,0.29704748758078375,0.3451781845117111
234,1456704150813583,0.18404073528529483,0.39461326026649873,0.32155580563579095
235,1456704150836660,0.19451178689809237,0.4908630802176765,0.3013972652185406
236,1456704150857697,0.19862265234350837,0.561249195587547,0.2975546511197013
237,1456704150873728,0.1955042468871361,0.5875365028879698,0.31484224250744824
238,1456704150896663,0.18686503020426262,0.5632375538475087,0.34752556926583716
239,1456704150917663,0.175866839135319,0.4952915319364651,0.38198320128587376
240,1456704150933705,0.16529099407084138,0.40123631631295886,0.40320576436032135
241,1456704150956676,0.15618524463665515,0.30273357344827706,0.4017835675432253
242,1456704150977678,0.14768346942844549,0.21817541781429248,0.3777155739768321
243,1456704150993878,0.1379244676377253,0.1577224309125739,0.3392176378378809
244,1456704151016898,0.12537514761851817,0.12259392687868252,0.2976877377929653
245,1456704151038890,0.10972906580906672,0.10787828801129463,0.26207375087983187
246,1456704151054103,0.09201640605598686,0.10652733929646825,0.23574084432406658
247,1456704151077105,0.07416061696330563,0.1123965302731424,0.2169392869593911
248,1456704151097912,0.058405930055279213,0.12148037864049036,0.20170594568854702
249,1456704151113894,0.04684926994096983,0.1316444496133205,0.18693706660086526
250,1456704151136194,0.041089178185504616,0.14161802219588174,0.17187011069819064
251,1456704151158319,0.04191882747602645,0.1500207339314566,0.15764872003026115
252,1456704151174316,0.049024714117911906,0.15499929266608017,0.14587455007958935
253,1456704151195312,0.06076978031902106,0.1546236799601613,0.1373414311570285
254,1456704151218199,0.07426776668835468,0.1477006626374196,0.13162363186649575
255,1456704151234402,0.08595447067772394,0.13445678301518027,0.12744283575933785
256,1456704151256374,0.09262101054952508,0.11667747772831258,0.12327857318632493
257,1456704151278385,0.09250224698589882,0.09718953820998122,0.11775571188936103
258,1456704151293385,0.08584341570297599,0.0789390149412694,0.10980372966603162
259,1456704151315402,0.07462808391999486,0.06416405819585831,0.09891589124259961
260,1456704151338386,0.061665207441545564,0.054035624289368867,0.08562658732141429
261,1456704151353324,0.049573599830744094,0.048726787842833456,0.0718184731527225
262,1456704151375380,0.04012009041380988,0.04761277664055731,0.060334092831724945
263,1456704151398328,0.034023159758402255,0.04943122644293074,0.053843018649445705
264,1456704151414328,0.031082366355119243,0.052493170767933126,0.05353445322931994
265,1456704151436347,0.030473913647512018,0.05507580508540056,0.058392597322461576
266,1456704151459181,0.03110438260840846,0.05593482602835393,0.06548049708260784
267,1456704151473379,0.031918729280598614,0.0547041278970981,0.07110971645036175
268,1456704151495377,0.03209930181532001,0.05197160511923313,0.07232928003621766
269,1456704151518377,0.031198588849187463,0.048972114465278674,0.0680371276257348
270,1456704151534349,0.029276723245099372,0.04700172662128001,0.05926706047455129
271,1456704151555711,0.027009332248034763,0.04679374373406608,0.04865571169355384
272,1456704151578712,0.025635333913921077,0.04817583840844949,0.03942584810726383
273,1456704151593712,0.026651684843435827,0.05024954988249286,0.03429414396780993
274,1456704151615988,0.03129714270882432,0.05205423394194457,0.03463723024272783
275,1456704151639657,0.039990239549624586,0.05335028683384994,0.040146777120225824
276,1456704151653658,0.05193194968606965,0.05503979019762484,0.049068299156566866
277,1456704151675888,0.06506708283114068,0.058937984726962885,0.05893277597204155
278,1456704151698661,0.07653793073597083,0.06695708899995291,0.06751064267861742
279,1456704151713663,0.08359695574613236,0.08004925204701431,0.07363433851485363
280,1456704151735546,0.08466368798350628,0.09739081333478268,0.07759536036566637
281,1456704151749596,0.0800143687856534,0.11624661905602261,0.08098224012970334
282,1456704151771842,0.0717135791857058,0.1327104116524314,0.0859896151181722
283,1456704151795557,0.06280186493229217,0.1431486361460259,0.09435568853817088
284,1456704151809564,0.056156769541290515,0.14579684675649998,0.10624661620713825
285,1456704151832069,0.053583381826792446,0.1417019072474513,0.11963058538963749
286,1456704151854582,0.055512743356728754,0.13436314669450494,0.13076523867188655
287,1456704151869620,0.061329906454172384,0.1281602303708786,0.13603852247656095
288,1456704151891586,0.07002409501031634,0.12645543289279348,0.13453111538050191
289,1456704151915844,0.080718849437913,0.13041087020070988,0.12982415300716785
290,1456704151929806,0.09276939022536564,0.1390555220705084,0.1295258141171873
291,1456704151951747,0.1054412071814106,0.15045910893360306,0.1420806993461118
292,1456704151974534,0.11750551834131859,0.16333150657160714,0.17213708918536397
293,1456704151989606,0.1271844349442873,0.1781239909460754,0.2169718683045757
294,1456704152011751,0.13266706501494333,0.19692812324583972,0.2663223672936358
295,1456704152034973,0.1329871579474782,0.22213384465905778,0.30637388323913417
296,1456704152050295,0.12868161847538528,0.2545608041570487,0.3262982076224038
297,1456704152072268,0.12169361476163264,0.2920676800600712,0.32383416625173755
298,1456704152095284,0.11448120257730995,0.32927563150600647,0.30638354601176127
299,1456704152110355,0.10882553591584582,0.35850588124197513,0.28663663818012003
300,1456704152132067,0.10501620733447842,0.3718183069849821,0.2754096109473594
301,1456704152154875,0.10189521442194517,0.3638220636533493,0.2762397130570703
302,1456704152169627,0.09776761526282488,0.3342482865960271,0.28474703952049646
303,1456704152191802,0.09161802533294006,0.2887258708444411,0.2923327785579682
304,1456704152214802,0.08381580073529299,0.23685697401031144,0.29138308467795704
305,1456704152229882,0.07583883217303733,0.1884082997048692,0.2791209975326869
306,1456704152252351,0.0692440360851122,0.14976304517455669,0.2585881175508073
307,1456704152275179,0.06461794732164246,0.12255484214738663,0.23660996495406147
308,1456704152290181,0.06121780253292642,0.10483601264692351,0.2198222264827128
309,1456704152312347,0.05750387541783277,0.0934789709684069,0.2109082934691075
310,1456704152334928,0.05214599284555391,0.08605447133487668,0.20728945026456483
311,1456704152349438,0.044834766589296936,0.08135584042401532,0.20302326177872002
312,1456704152371442,0.03647613182580071,0.0789486406020597,0.19252785404312805
313,1456704152394649,0.028792981590840292,0.07853599125141299,0.1736702702233868
314,1456704152409699,0.023648328551363777,0.07958045329879375,0.14849675022889808
315,1456704152432330,0.022436409610552672,0.08120736088391041,0.12165836412544409
316,1456704152455165,0.02574458971588206,0.08230806962092888,0.09795530207981508
317,1456704152470166,0.033302552988208965,0.08183669512551439,0.08052485701801551
318,1456704152492315,0.04411332685701975,0.07926757478167243,0.07029796156255481
319,1456704152515168,0.0566452022562321,0.07497930111193238,0.0664020211782654
320,1456704152529963,0.06902812078410409,0.07022771849318926,0.06688007015123282
321,1456704152551836,0.0792698047254526,0.06662675585142457,0.06933454683656654
322,1456704152575198,0.08553015379770543,0.0654517031766469,0.07141934973521805
323,1456704152590134,0.08647898181476077,0.06715896751236784,0.07125469396218814
324,1456704152613843,0.08172148092601667,0.07125557999461252,0.06784439365858932
325,1456704152635146,0.0721704021970821,0.07643802515401872,0.06147967735058529
326,1456704152650140,0.06011657249110672,0.08093676253869443,0.05395822294665212
327,1456704152672141,0.04876391119142543,0.08306105755362207,0.048339054973827386
328,1456704152695143,0.04123912203658295,0.08185984136647344,0.04805704301875987
329,1456704152710144,0.03943321373915895,0.07765271886712466,0.05558519204650714
330,1456704152732163,0.04323465585821923,0.07211477648130656,0.07121955974415065
331,1456704152754973,0.05058729194982578,0.0677473242986505,0.09261982199104521
332,1456704152769965,0.05837843842103902,0.06689106958885631,0.1153859078665835
333,1456704152792254,0.06370307049043418,0.07071348270605037,0.13444081306463984
334,1456704152815233,0.06488744946534003,0.07862484771197802,0.14563885185001083
335,1456704152837901,0.06188824283085676,0.08836174320668132,0.1469647376795348
336,1456704152851574,0.05607933266440876,0.09668342958754193,0.13890589001371695
337,1456704152874570,0.04967819534051614,0.10040030880221149,0.12399214226464379
338,1456704152897720,0.04504965519103236,0.09739094005917198,0.10591343619830117
339,1456704152912571,0.04401182001968854,0.08738292202988894,0.08874844087580852
340,1456704152935298,0.047240319456729414,0.07243253307962329,0.07656401575317032
341,1456704152957591,0.05394581485805785,0.05704347892561452,0.07320936383882354
342,1456704152971597,0.06206491369371431,0.04772416763257903,0.08186364359768794
343,1456704152994598,0.06911670377984928,0.05174167788275555,0.10403085770954544
344,1456704153017937,0.07357152739317281,0.07507854855842323,0.1381989168732807
345,1456704153032388,0.07615039893625411,0.12003292437223342,0.17895570004461242
346,1456704153054704,0.08023886681191726,0.18328172260419703,0.21754838334663743
347,1456704153078005,0.0908983300505752,0.2553929140730668,0.24442424150387995
348,1456704153091999,0.11272773785087409,0.3225521296681536,0.2531847502838035
349,1456704153115062,0.1475144073781086,0.3704462151204802,0.24411146350155868
350,1456704153137798,0.19270563911814512,0.38903216383513184,0.22508917881323864
351,1456704153152090,0.24130235326681543,0.3761751456107379,0.2090092442587624
352,1456704153174800,0.2832803331836779,0.3385817627596512,0.20868444936277866
353,1456704153198127,0.30830816376536613,0.28974717394691046,0.23149679630014028
354,1456704153212097,0.3091649545457972,0.24578990540522233,0.2760849749509772
355,1456704153234808,0.284720497520136,0.2205708938432505,0.332721747737621
356,1456704153257831,0.24099568073091573,0.22158562117321356,0.38757728348090664
357,1456704153271826,0.189360684833764,0.24792221302385406,0.42892736738401344
358,1456704153303830,0.14241254156884114,0.2908792601171363,0.45183184467342985
359,1456704153317833,0.10945222621214701,0.33675380685917666,0.458501696351129
360,1456704153332242,0.0936535773103349,0.37063755226978173,0.4544983060852267
361,1456704153354996,0.09198986999646291,0.38025866910090766,0.44386931673492314
362,1456704153377997,0.09755847415809286,0.3593165212613555,0.4268090701784348
363,1456704153391988,0.1029090437488936,0.30960743651863853,0.4011143881680398
364,1456704153414926,0.10280376256655752,0.24091613650163646,0.36574022884605273
365,1456704153437918,0.09546644821998153,0.16813560367432887,0.3235606096545737
366,1456704153451584,0.08226799053403219,0.10644857301685183,0.28149228338059773
367,1456704153474948,0.06640953034026571,0.06653981830347111,0.24804641884409004
368,1456704153497580,0.051345944996602576,0.05173271445898924,0.22969348267085687
369,1456704153512580,0.03956692695130496,0.05788908114599451,0.22783066400357305
370,1456704153535091,0.03207508905744841,0.07576995261457337,0.23782341397908105
371,1456704153557432,0.028569226939267733,0.09479596164615237,0.25060690474017977
372,1456704153579427,0.028057639914273527,0.10676833158146345,0.25606216821992495
373,1456704153594763,0.029517987310292038,0.10818692892642712,0.24668314543033293
374,1456704153617730,0.03233715845999603,0.10044523925715225,0.22026502625677916
375,1456704153632222,0.03646999198939585,0.08815207774451775,0.1808900233869347
376,1456704153654846,0.04234551764121944,0.07658351732231375,0.1378564816444465
377,1456704153677554,0.05051722945772431,0.06943220849817462,0.1026285605741546
378,1456704153691735,0.061089019052169395,0.06766238972950754,0.08466657209736583
379,1456704153714660,0.07314467669566278,0.06971016429939993,0.08774457773770504
380,1456704153737656,0.08459124336104168,0.07271128836948725,0.10841197408530381
381,1456704153751666,0.09271465742933303,0.07402448693296922,0.1374117978186109
382,1456704153774668,0.09528929285611652,0.07227089249028976,0.1634867251633654
383,1456704153797948,0.09161539428639759,0.06753587223949933,0.17778123475386473
384,1456704153811896,0.08283681245808794,0.060939171729103445,0.1767699894237662
385,1456704153835111,0.07139983880718531,0.05399730469838818,0.16256888587136475
386,1456704153858226,0.06009896982225455,0.04804796033213529,0.1409428149306193
387,1456704153872105,0.051290139544394896,0.04383100889197251,0.1183387777755059
388,1456704153895300,0.046509365130552975,0.041327614775436804,0.09943532078743715
389,1456704153918301,0.046350359164415086,0.03999605335127663,0.08614160404178703
390,1456704153932285,0.05039236089650885,0.03937694019276399,0.07805120612658907
391,1456704153955640,0.05718269266106286,0.039714225067333755,0.07360779558778814
392,1456704153977648,0.0644621633647293,0.04208356635737571,0.07113539675639448
393,1456704153991643,0.06976037644230373,0.04778082384256003,0.06931579852586252
394,1456704154014644,0.07122949455161029,0.05725285870721046,0.06716214307508525
395,1456704154037757,0.06836247524115165,0.06924555652219876,0.06377207719299016
396,1456704154059766,0.06224872956029145,0.08079112726088516,0.05820251576793806
397,1456704154075063,0.055222112007991674,0.08817492947251558,0.04972327479563818
398,1456704154097767,0.04999648194703428,0.08845419836596531,0.038445860770488054
399,1456704154120051,0.048598072808849715,0.08084540139546467,0.026012340383523486
400,1456704154134937,0.05154318038189957,0.06742964111214622,0.01588442010647294
401,1456704154157022,0.05763464094506855,0.052901430740834664,0.012869082867805044
402,1456704154189023,0.06443340281371089,0.04335369329986665,0.02179332232848331
403,1456704154195023,0.06913971913446833,0.044417919120683214,0.04561207556304365
404,1456704154217199,0.06955998703746989,0.059399829566318764,0.08359148250266193
405,1456704154240134,0.06500046562540887,0.08810230681645782,0.13040860349655672
406,1456704154254880,0.0570085318249465,0.12673158824995545,0.17690198145286226
407,1456704154276846,0.049716266620735416,0.16889340908535355,0.2127097053211036
408,1456704154300057,0.04934743669236876,0.20744655391303984,0.2302155377946421
409,1456704154314982,0.06255214082078958,0.23681035141516757,0.22834903368324272
410,1456704154336609,0.0937370283689749,0.254993126638214,0.21428757022141073
411,1456704154360123,0.14227029138543185,0.2643225022231554,0.20155067768723348
412,1456704154374124,0.20093009826456157,0.27028410645324175,0.2045784059084196
413,1456704154404126,0.2568105855623322,0.279080419246977,0.23192886566142712
414,1456704154419127,0.29500326102813823,0.29536551039544745,0.2814405107821166
415,1456704154434633,0.3039907333535209,0.3211530400035693,0.3402427874029708
416,1456704154457193,0.28043497123528743,0.3557980250371543,0.39032709435562796
417,1456704154480145,0.23088793801252464,0.39643966876763875,0.41726228636492774
418,1456704154495190,0.1694346110362619,0.438486991289217,0.4172613216023563
419,1456704154516514,0.11249526479282172,0.4759909246986147,0.3982321981219041
420,1456704154540255,0.07330300553999954,0.5019321506701568,0.37414678735191015
421,1456704154555281,0.05824979516779803,0.5088917587691107,0.35657509058119524
422,1456704154577278,0.0660309517537988,0.49090348357050384,0.34887514120593366
423,1456704154600257,0.08927352170025166,0.44648504170691605,0.3460580119883702
424,1456704154614260,0.1176089275089669,0.38109820186688786,0.3392505782340341
425,1456704154637088,0.1410144227811203,0.3066107752561157,0.3213440587525893
426,1456704154668584,0.15250057850967919,0.2371136365270542,0.2907950067608557
427,1456704154674944,0.14958846408530702,0.18327693878245163,0.2522194959873588
428,1456704154696586,0.13437307935768758,0.14859272107353033,0.2140078922270828
429,1456704154719871,0.1122985006490213,0.12941879452838717,0.18434945984293008
430,1456704154735373,0.09006689380062075,0.11823785996684583,0.16762904079742502
431,1456704154757380,0.07335412632808465,0.10793517706353922,0.16282946250947394
432,1456704154779383,0.06511037223050932,0.09487770864790764,0.16450307745562764
433,1456704154795384,0.06501536301134082,0.07966963654527677,0.16567938226017875
434,1456704154817384,0.07015883683249896,0.06580762691279084,0.16124729871525859
435,1456704154840467,0.07651619888375201,0.057349098647277684,0.15018043881825568
436,1456704154854802,0.08054955017031218,0.05681955874197136,0.13560005886267026
437,1456704154876476,0.08033350390602195,0.06411381513130385,0.12280663218124861
438,1456704154899472,0.07589879462689796,0.0765623724210369,0.11639577963994505
439,1456704154914473,0.06884301719034205,0.08993550382102729,0.11790286732787969
440,1456704154937268,0.061493087373042904,0.09993886157492769,0.1250398472101907
441,1456704154960093,0.055976717649361116,0.10364938542306694,0.13276241493761548
442,1456704154974813,0.05354248428731482,0.10036431460973645,0.13554568093408337
443,1456704154996813,0.05433978580854571,0.09154593719450464,0.1297779020149614
444,1456704155020031,0.0576127359440178,0.0799515802329973,0.11527114805684854
445,1456704155035222,0.06206447202135802,0.06846534576966562,0.09532913699798834
446,1456704155056774,0.06619230881954993,0.059257450136840945,0.07537633716647557
447,1456704155079770,0.06856960291125205,0.05356641371518383,0.060754343278797605
448,1456704155094998,0.06812909605483815,0.05192510736141997,0.05468318502889062
449,1456704155117002,0.06444246461199137,0.05441189609978445,0.05723300658057569
450,1456704155140100,0.05790983711885433,0.060618937002829464,0.06555068012119852
451,1456704155154799,0.04975404205870075,0.06936365554806344,0.07502087938068952
452,1456704155177134,0.04176190917707649,0.078464392057562,0.08082795927443177
453,1456704155200134,0.03581789021046168,0.08491524105968533,0.07945122239069165
454,1456704155215018,0.03338338090428806,0.08556075641578188,0.06977046666299552
455,1456704155237114,0.035094948423299965,0.07815144259620554,0.053600340323890265
456,1456704155260163,0.040579449568746984,0.06255321337082734,0.03560818005691501
457,1456704155275167,0.04852738858123959,0.04174598044923083,0.022640513894262262
458,1456704155296835,0.05707911628857407,0.02208331838906359,0.02243702972468548
459,1456704155319843,0.06453574846919384,0.012340108422825966,0.04167209470751591
460,1456704155342160,0.07018911548763739,0.021454510498961753,0.08347731959918027
461,1456704155357251,0.07481246883403316,0.055415651470361836,0.14513185193688202
462,1456704155379160,0.08037618837540488,0.1142727863818698,0.21714881858259055
463,1456704155403177,0.08897130907197154,0.19056845079367482,0.2849839783760487
464,1456704155417179,0.101490264554245,0.27032823500367237,0.3336072221568942
465,1456704155440249,0.1168735744000699,0.3368432024013638,0.35334529985566326
466,1456704155462342,0.1323894707033737,0.37607987589071296,0.34390992094559236
467,1456704155477244,0.1446959866062303,0.38140475557636694,0.31407790632770693
468,1456704155500249,0.15098732439704404,0.3553708799219797,0.27724286653967484
469,1456704155523288,0.14971709456984036,0.30791963355007956,0.24567037433109007
470,1456704155537093,0.14087032190296983,0.25243688627061006,0.22647863894335807
471,1456704155559134,0.12597726950877972,0.20194699168120447,0.22057408902327838
472,1456704155583169,0.10795836041194452,0.1668501541378964,0.22403514243915187
473,1456704155597172,0.09074092236687964,0.15412546627862364,0.23080541153553535
474,1456704155620171,0.07856797086811894,0.16707456805888693,0.23565236562362352
475,1456704155642859,0.07503319409174941,0.20485141834362489,0.23647298750806503
476,1456704155657121,0.08207305257437338,0.2618269897495858,0.23499825744571737
477,1456704155679862,0.0992878753912175,0.32751793466971674,0.23525298856521773
478,1456704155703130,0.1238711213420701,0.3878857393004872,0.2402730898007438
479,1456704155717130,0.15113878926600136,0.42837496395192337,0.24903987957818968
480,1456704155739452,0.17545700335042697,0.4382129717121866,0.2559111360446803
481,1456704155763469,0.19138796527931193,0.414348474248532,0.25326942606910063
482,1456704155776739,0.19490580850597347,0.362807560505722,0.2357864118604406
483,1456704155799860,0.1844349351131506,0.2962526359476513,0.20361445893636942
484,1456704155822763,0.16138057779911053,0.2288308124246733,0.16275746466437524
485,1456704155836971,0.12991319033169088,0.17118221201604045,0.1227404563132519
486,1456704155859489,0.09598099933158188,0.12817401497563966,0.09295552212297185
487,1456704155882716,0.0657500064151723,0.09979927607427744,0.07926554176591451
488,1456704155896484,0.043919998071764055,0.08361981103771121,0.08206159324753343
489,1456704155919789,0.032560386209971384,0.07678081795955452,0.0963997474035888
490,1456704155942842,0.030967892209733307,0.07678365343814346,0.11414249838395692
491,1456704155956804,0.03651016099396399,0.08138584309892756,0.12723155618413404
492,1456704155979801,0.04588333115479982,0.0882998653274043,0.13064038893985785
493,1456704156002020,0.05610344255549193,0.09510267712951652,0.12369368775455018
494,1456704156017024,0.06490454060476579,0.09949621450249525,0.10938995915534953
495,1456704156039518,0.0707038910889396,0.09984666905904363,0.09246861957832844
496,1456704156062148,0.07252562951438953,0.09570570804940348,0.07741251823557278
497,1456704156077146,0.07010949206903266,0.08793500572691389,0.06721773364984615
498,1456704156100153,0.06408941450487707,0.07828432566429369,0.06307996586842547
499,1456704156122151,0.055950785464800847,0.06866006925369764,0.06466625751466101
500,1456704156136968,0.04760718915311645,0.06050308977128053,0.07055464279935549
501,1456704156159793,0.04074139111366322,0.054546535715808545,0.07860932993275
502,1456704156181757,0.03627184333946356,0.05097761796274892,0.08629283577583041
503,1456704156196758,0.0342460011846562,0.04987018415449428,0.09105935163769284
504,1456704156219991,0.034163977036828844,0.051637937618492086,0.09094933300593683
505,1456704156242205,0.035459816450131264,0.05718346166100019,0.08528304600117466
506,1456704156257206,0.03783532443047174,0.06752915130233111,0.07509563278483411
507,1456704156279208,0.04131629804032804,0.08301707116949401,0.06297565956041935
508,1456704156301421,0.04608999743066919,0.10247343750075819,0.05230685003182116
509,1456704156317209,0.052276234546959253,0.12287422690140615,0.046237536580178894
510,1456704156340115,0.05978957829364222,0.13990081076742006,0.04675272297355378
511,1456704156361121,0.06836764229233544,0.14932650584272472,0.05408843380184242
512,1456704156376123,0.07768441317726973,0.14866357783257048,0.06660794100461903
513,1456704156400149,0.08736493130245038,0.138282679541669,0.08120484567067737
514,1456704156422143,0.09680228595174854,0.12144037828243316,0.09422295852055361
515,1456704156437116,0.10489954363122243,0.10316587686911192,0.10269972370369847
516,1456704156459305,0.11001750463486774,0.0884813943223636,0.10548524616928016
517,1456704156482145,0.11036086805202555,0.08070520437198785,0.1036615848078092
518,1456704156506148,0.10479518860307259,0.08048735279515014,0.09990798476553667
519,1456704156520144,0.09375796770366764,0.08583975242764982,0.09703278017324433
520,1456704156542114,0.0796810531772001,0.0930122583631795,0.09649057706379476
521,1456704156566144,0.06643961817298097,0.09785650279706974,0.09782192600961742
522,1456704156579114,0.057880394045680114,0.09728125075585238,0.09937490132006893
523,1456704156602139,0.056116700686194926,0.09041427840315241,0.09979109005160076
524,1456704156626100,0.06051609944600087,0.0791548153991006,0.0992504273753878
525,1456704156639844,0.06797726272863817,0.06795645088287837,0.0996869621250298
526,1456704156661343,0.07440585473503686,0.06285352539538393,0.10387127594515404
527,1456704156686343,0.07666694979574129,0.06988910398723627,0.11392657178533376
528,1456704156699645,0.07409662756157949,0.09323970635428543,0.13011717856116398
529,1456704156721630,0.068948294920064,0.1334631185986754,0.15052872056914335
530,1456704156745693,0.06563902882574946,0.18640237983961655,0.1717561560641106
531,1456704156759848,0.06908320578426418,0.24330013559350602,0.19019462740356938
532,1456704156781788,0.0826928172342032,0.29245879414030473,0.20320305220644008
533,1456704156805851,0.10675471964623344,0.32222869328166365,0.20953797579233055
534,1456704156819845,0.13779595181129825,0.3244353377087025,0.20907915842963665
535,1456704156841359,0.16923506108426314,0.29702616254238884,0.20242776995093414
536,1456704156865356,0.1932147973769711,0.24502051554470297,0.19078919073108577
537,1456704156879356,0.20315151711537294,0.17961350089862405,0.17592000697092672
538,1456704156901357,0.19625316157623193,0.1159535899282863,0.15976235614496534
539,1456704156926151,0.17504064148985912,0.07020844131324507,0.14389519296784262
540,1456704156939663,0.1469646332196174,0.056222622164121654,0.1293138910890946
541,1456704156962160,0.12187353694829743,0.08198810344142045,0.11681121126827443
542,1456704156984167,0.10819407329403118,0.14655503605151288,0.1076801406636055
543,1456704156999168,0.10950303504083961,0.23855148409396582,0.10407501408569499
544,1456704157021168,0.12314473433628763,0.3376306429122734,0.10844478354880306
545,1456704157044635,0.14165368006644027,0.41947269481742516,0.12203771777894393
546,1456704157059423,0.1563025067942042,0.46329975200069246,0.14323161215068259
547,1456704157081582,0.1608893566211586,0.45898088388847574,0.1668352484573695
548,1456704157104390,0.15386508140123262,0.41028935323160665,0.18521393879523493
549,1456704157119637,0.13813438643235748,0.3326367939061598,0.19114083611938462
550,1456704157142102,0.11921235802157812,0.24659713209375791,0.1810893072449252
551,1456704157165120,0.1028842177015486,0.17057810792321082,0.15709012147355175
552,1456704157188120,0.09325723143284217,0.11586392342252391,0.12596941907672451
553,1456704157202105,0.09172132801983399,0.08542109269539759,0.09641687414467767
554,1456704157225097,0.09698543952555931,0.07573929070283583,0.07559944765403263
555,1456704157239831,0.10594545018372628,0.07986494127571475,0.06698910671456626
556,1456704157262339,0.11487121206589936,0.09009943553372007,0.0700364954563117
557,1456704157284641,0.12046875339053718,0.09985918971127972,0.08126433239748333
558,1456704157299639,0.12060520474262519,0.10483718203981221,0.0958866870118554
559,1456704157321627,0.11464177597646998,0.10354741337169641,0.10921968904665565
560,1456704157344763,0.10339608788233676,0.09713075899671292,0.11761112772611948
561,1456704157359436,0.08880506704284073,0.08844430258433371,0.11896042453594095
562,1456704157381831,0.07339016152324422,0.08078191471310213,0.11295719356906168
563,1456704157404764,0.05965164699354699,0.07668336514648277,0.10108688496809101
564,1456704157419439,0.0495321575543284,0.07716223545063933,0.08637620068617557
565,1456704157441469,0.04405933967824894,0.08154392367653618,0.07279162677360176
566,1456704157464470,0.04321082914663174,0.08796296110280367,0.06424525248824359
567,1456704157479471,0.04598680255153301,0.0943005799219362,0.06338240263207261
568,1456704157501756,0.050660408534834306,0.09907260885118747,0.07057175664287522
569,1456704157524814,0.05518922045268681,0.10180163764096357,0.08356159768897922
570,1456704157539864,0.05774946856499587,0.10277431520353408,0.0980647049188245
571,1456704157561334,0.05726848356568228,0.10248535100867455,0.10918108475877686
572,1456704157584637,0.05375412802130496,0.101196343524741,0.11317285653283025
573,1456704157600335,0.04827174235586307,0.0988743933798798,0.10884564515027928
574,1456704157621629,0.04259274894690978,0.09547781918110357,0.0978897495020838
575,1456704157644763,0.03867131670708985,0.09128788323139114,0.0840357452786759
576,1456704157659760,0.03809568486888448,0.08694182371958264,0.07148880855342968
577,1456704157681432,0.041607440555366096,0.08308369044498355,0.06341910535179852
578,1456704157704694,0.04880060425162121,0.07988108452752891,0.061137436340858144
579,1456704157721666,0.058150953901084344,0.07676229522425285,0.06410890254287839
580,1456704157741670,0.06745643165804362,0.07259222393825657,0.07047898208013685
581,1456704157764664,0.0745735109092046,0.06626612089246198,0.0776760876789691
582,1456704157781666,0.07814480433766675,0.05745361631207407,0.08297189834472858
583,1456704157801958,0.07798859433749782,0.047085733477540026,0.08418324345265102
584,1456704157824969,0.07499463651484556,0.03727043255685806,0.08052342764505549
585,1456704157847983,0.07062795212344576,0.03062586003751724,0.07312781656477034
586,1456704157862136,0.06632297344449366,0.029339485559673688,0.06466451244186723
587,1456704157885166,0.06305124734332013,0.034385351805170786,0.05801725382168603
588,1456704157907135,0.061182071022078455,0.04520877780349347,0.054802669758173106
589,1456704157923169,0.06056947066877728,0.05994698121898088,0.0547208617547559
590,1456704157944301,0.060739352965476445,0.07604879665200791,0.05623888308850788
591,1456704157966304,0.06110658243516432,0.09104576145445731,0.05825708483569941
592,1456704157981300,0.06120645734908649,0.1032121214970751,0.061717199827391496
593,1456704158004520,0.0609448622898642,0.1119136960446793,0.06995532263488559
594,1456704158027836,0.060863779374259165,0.11755649175755298,0.08719195654437216
595,1456704158041541,0.06229991439862268,0.12121463114023419,0.1157054501337675
596,1456704158064547,0.06711804269871689,0.12421960334601645,0.1532406583840898
597,1456704158086764,0.07677999364285634,0.12804483243375608,0.19233240956599398
598,1456704158102759,0.09108367625037532,0.13452209213730365,0.2223929377772899
599,1456704158124779,0.10751307605130285,0.14590611737116022,0.23405490285835837
600,1456704158147803,0.12201997361959133,0.16409354149364114,0.2238901451935517
601,1456704158165784,0.13106940443505774,0.18889723824074636,0.1969730774638526
602,1456704158185124,0.1336854808910565,0.21641739692827644,0.1656320408901351
603,1456704158207069,0.13206029183146062,0.23912061230411902,0.14488061286246623
604,1456704158221792,0.1303248016725055,0.2484128065380277,0.14680801139236976
605,1456704158245160,0.1324641672379176,0.23887356886215128,0.17631422010115375
606,1456704158267888,0.14087727115738286,0.2122092662719577,0.2294646685663784
607,1456704158283083,0.1563295929158737,0.17885510172840344,0.294721777928533
608,1456704158305082,0.17872386251633413,0.1558123918146637,0.356781288279942
609,1456704158326834,0.20741590400797552,0.16075731073164737,0.4021136259612902
610,1456704158342140,0.2404584790148296,0.20440755822066783,0.42432113746129635
611,1456704158364157,0.2735799480346124,0.2844388698840866,0.426779878613765
612,1456704158388157,0.30036387572597995,0.3839578176941196,0.42074270009302733
613,1456704158403159,0.31413454072426755,0.47584579227921076,0.4193004656981298
614,1456704158425160,0.3104336749570075,0.5319173824844277,0.43014122057388193
615,1456704158447183,0.2885143763918628,0.5334608318837519,0.4511108768101501
616,1456704158461183,0.25138805580203455,0.47846638195309715,0.4712109679528604
617,1456704158484397,0.2050552960928741,0.38206899512485804,0.476583898889986
618,1456704158507452,0.15736645324500068,0.2702328322244589,0.458155393471106
619,1456704158522519,0.11633160177509988,0.1700841960112396,0.4167300681355478
620,1456704158552122,0.08793791001553852,0.10128193586694076,0.3628949938859334
621,1456704158576148,0.07430514021375142,0.07141025640470283,0.3119804147968078
622,1456704158583148,0.07318104484658386,0.07614936064821295,0.2768821349087612
623,1456704158605144,0.0791314964856607,0.10318028684725196,0.2624848163105049
624,1456704158627923,0.08588436157357154,0.13778880951435538,0.26433538412899454
625,1456704158643216,0.08867058614036298,0.16792315302927716,0.271775276714946
626,1456704158664219,0.08545056878880193,0.1870064142691687,0.2734527814045338
627,1456704158688219,0.07668640519874313,0.19399541074446106,0.2623224068204338
628,1456704158704220,0.06425569293815447,0.1914860238038944,0.23802328942190434
629,1456704158725221,0.05044584195169848,0.18332405417420336,0.20604806076355178
630,1456704158748367,0.03756130858333224,0.17290732996899344,0.17451819269483584
631,1456704158763369,0.02800261295269912,0.162571009645667,0.15026239032390698
632,1456704158784670,0.024289124999508766,0.1537155030802549,0.13604162940110176
633,1456704158807742,0.028596422800327943,0.14705130065505234,0.1300827845100599
634,1456704158823371,0.04180947420829142,0.14260147302686407,0.12782717382643738
635,1456704158847166,0.06256048872505393,0.13960786686804502,0.12465655525010245
636,1456704158867208,0.08693441507425433,0.1367037945600035,0.11803514739691064
637,1456704158883166,0.10929965621614453,0.13247197058840024,0.10814135098691541
638,1456704158905167,0.12412703915939048,0.126127440269124,0.0970939378190473
639,1456704158927745,0.1280518678146109,0.11793096573420929,0.08754931567218534
640,1456704158943258,0.12121097841637499,0.10911613374296217,0.08146893508568344
641,1456704158964261,0.10718547298742623,0.10140618302502107,0.07950583949490522
642,1456704158987268,0.09152583474844983,0.09638573532063943,0.08109841974638207
643,1456704159003262,0.0795174731389601,0.09499091493520423,0.08509522738598828
644,1456704159025263,0.07422506798197347,0.09723620152988609,0.09054270588409011
645,1456704159047531,0.0756797874339381,0.10215566337925662,0.09717891293119726
646,1456704159069533,0.08141797226478883,0.10794721332835246,0.10529238364295812
647,1456704159084539,0.08789938473448915,0.11240863503354714,0.11499138806652733
648,1456704159107757,0.09206185616623104,0.11367347402391559,0.1254256430315084
649,1456704159129751,0.09240508301600177,0.11094206308747201,0.13467690815303504
650,1456704159144705,0.08927159011736384,0.1047553971097319,0.1405685691964523
651,1456704159167728,0.08431298436598691,0.09666269466999092,0.1418452647215624
652,1456704159189773,0.07950704331618641,0.08854261827193592,0.13879583372511206
653,1456704159204802,0.07630694547357465,0.0819112007859947,0.13282509403788825
654,1456704159228075,0.07530310095506638,0.07741637113015255,0.12534866213360712
655,1456704159249579,0.07633559892511978,0.07469301543608022,0.11694611503588558
656,1456704159272589,0.07876917127059473,0.0727234467584014,0.10747418554939019
657,1456704159287589,0.08176215669613321,0.07057397239326373,0.09699145194294662
658,1456704159309870,0.08451805209800609,0.06804091566766053,0.08662144780168764
659,1456704159324875,0.08648664618884021,0.06575131524776351,0.07852849440119614
660,1456704159347888,0.0874223669408945,0.06466225368386322,0.07493418103963015
661,1456704159369889,0.08727471830521931,0.06530725497220045,0.07687362726783947
662,1456704159385123,0.08601663593239882,0.06725091207130837,0.08354866932437668
663,1456704159407892,0.08357080836295405,0.06906448118352332,0.0926491536739289
664,1456704159429716,0.07991618925418223,0.06888178754412626,0.10135216213692233
665,1456704159444189,0.07528821916298034,0.06532874513379892,0.10736993840143597
666,1456704159467233,0.07025991808761682,0.05840011208734658,0.10958211688767058
667,1456704159489197,0.06556563839297587,0.04979440930232367,0.10820961307395556
668,1456704159504192,0.061781750906175666,0.0424310942902292,0.10470826993381888
669,1456704159527738,0.05913360386120397,0.03930941148434426,0.10143672605009728
670,1456704159551248,0.05756139556498937,0.04224134417183049,0.10102080164053358
671,1456704159564211,0.056930832488682886,0.0510477249664129,0.10548090381418411
672,1456704159587457,0.05719608678358255,0.06356339756164309,0.11544102972003739
673,1456704159609410,0.05839976372392808,0.07642299811392234,0.12977480533274552
674,1456704159626249,0.060478697853591466,0.08624411195037844,0.1458039051512476
675,1456704159647448,0.06293882041886727,0.09065571008806164,0.15985478303260248
676,1456704159677621,0.06459153306950388,0.0887657276836078,0.16786707974487267
677,1456704159686587,0.0635962093684355,0.08101582600696913,0.16594408235961033
678,1456704159707691,0.05794851257921806,0.06865908744390788,0.15104319547152312
679,1456704159729632,0.04633873169390415,0.053182645890641894,0.12200613807876273
680,1456704159746139,0.029034797949644232,0.03592831640048972,0.08064640134050075
681,1456704159767383,0.00823871722869389,0.017992785324241773,0.03208168236201572
