,timestamp,x,y,z
0,1456704146116973,0.013984584569144889,0.006854446295170995,0.011299122196000114
1,1456704146138479,0.02266421021416128,0.014624002578125236,0.022205184000093987
2,1456704146162481,0.02994178838176226,0.021050328730531354,0.03214304457919609
3,1456704146177482,0.03513009711830816,0.025033015314811113,0.0403404504834586
4,1456704146198488,0.03827243334361226,0.02615806019693269,0.04641539255319214
5,1456704146222999,0.04002684617231388,0.02483169571113515,0.050303975298082095
6,1456704146268507,0.041343445623148026,0.022188276575452866,0.052130922653711984
7,1456704146277508,0.04315186173262006,0.01975619123785718,0.05213553336559341
8,1456704146285508,0.04615499487411876,0.018957185195252378,0.050678292182752556
9,1456704146300511,0.05065104796765535,0.020626391080562682,0.0482899357894095
10,1456704146321224,0.0563009438181032,0.024772570953783612,0.04569667941811574
11,1456704146342727,0.06195260122929379,0.030690821127633373,0.04375660236691173
12,1456704146387010,0.06578564059683989,0.03734010419252008,0.04328160094920638
13,1456704146387724,0.06590890595866739,0.04374184636178275,0.044778265107348454
14,1456704146402044,0.06120590930572228,0.04917696692306456,0.04819011933902148
15,1456704146418016,0.052001761193628544,0.0531482992299764,0.05276439945880179
16,1456704146440527,0.040201091421663,0.05526552753857394,0.05718002115707375
17,1456704146461534,0.028806340392404966,0.05524086857896147,0.05999010138564829
18,1456704146477544,0.0209890321699563,0.05304133698625543,0.060249038576864186
19,1456704146508538,0.019067697009034986,0.049055698374271615,0.05804499945586654
20,1456704146522353,0.023783785370245395,0.04408134981318195,0.05467633803128905
21,1456704146537556,0.0341286705429861,0.03907809265723204,0.05236776164440301
22,1456704146560559,0.04773976804184129,0.034830605409519176,0.053581818586897756
23,1456704146582559,0.061683097743066385,0.03174470789786209,0.0600881723235795
24,1456704146605561,0.07334458204385258,0.029943649718005564,0.07208216093209972
25,1456704146621598,0.08115064637595253,0.02965552876901318,0.08778379913431233
26,1456704146641864,0.08488443433044268,0.03163631462724773,0.10387639100348894
27,1456704146664867,0.08547059832207406,0.03721506799090559,0.11672670566235191
28,1456704146680865,0.08432621219796191,0.04768835429718956,0.12382563129941189
29,1456704146701875,0.0826446009788077,0.06324165432743002,0.12471404018570093
30,1456704146725402,0.0810654485505416,0.08204591955313066,0.12093267439160714
31,1456704146741165,0.07993234757852775,0.10026446993740032,0.1150431711973156
32,1456704146770094,0.07984785128939484,0.1132357005802073,0.10923013094127923
33,1456704146787124,0.08188430580284814,0.11732916338117894,0.10421317623238288
34,1456704146800893,0.08702136505375305,0.1114605326616228,0.09907319215641422
35,1456704146822357,0.09510638970780885,0.09743047044560985,0.0921469055187605
36,1456704146845318,0.10419952487528654,0.0790307516892387,0.08254022179795867
37,1456704146860318,0.11099404643942422,0.06060849793938295,0.0714023543418178
38,1456704146882454,0.11226621948627384,0.04590235439613566,0.062232481301140105
39,1456704146905454,0.10662997400869287,0.03750645635202842,0.06008969064899478
40,1456704146921272,0.0956714807377109,0.03681642216835753,0.07013856434661013
41,1456704146942526,0.08384088435735061,0.04414062237045536,0.0961024862019679
42,1456704146973311,0.0770492581845945,0.05876182342012582,0.13899304987419858
43,1456704146981311,0.08044562797323859,0.07889901597814156,0.19622547748571692
44,1456704147004448,0.09615514199163804,0.10165634714182614,0.2611828449999079
45,1456704147025263,0.12188039688502307,0.12316667842515158,0.32357613439089605
46,1456704147041427,0.15117887395375637,0.13921633510624568,0.37119914549971467
47,1456704147063163,0.17566821798426904,0.14655800316578077,0.3932311550921046
48,1456704147086506,0.18836249106949066,0.14474526163848,0.3841770887544346
49,1456704147101164,0.18654447420287812,0.13770351814186688,0.3468858320006812
50,1456704147123179,0.17285613310220424,0.13381234354465174,0.29341942011017214
51,1456704147145191,0.15437537337107857,0.14359537925455537,0.243233191632022
52,1456704147161189,0.1402794266378717,0.17530003593209836,0.21856159703056335
53,1456704147190214,0.13885036464037723,0.2300680986838455,0.23746303550794265
54,1456704147205192,0.15454278907640953,0.2991850129537773,0.30621233569053075
55,1456704147221197,0.1859755874719383,0.3654790751106982,0.4141742139182807
56,1456704147243203,0.22576622881773514,0.40919856225188644,0.534501392261347
57,1456704147265205,0.2626470315850528,0.4161950594139323,0.6318959786056982
58,1456704147281206,0.28525259445350104,0.38440817231934293,0.6749593813945552
59,1456704147305207,0.2859850309130168,0.3250206555467806,0.6477329699811287
60,1456704147324224,0.2633128261732652,0.2574742941036527,0.5551041025185126
61,1456704147341408,0.22182174755069517,0.20106389325331356,0.41992403476828166
62,1456704147363236,0.17040271823216807,0.16752510632028628,0.2738640738247669
63,1456704147386414,0.11942253386715034,0.1578600107598802,0.14661272867285108
64,1456704147408238,0.07780466423332487,0.1639346499231949,0.05779155921460559
65,1456704147423247,0.05093820638090324,0.173219677800709,0.013778629295429501
66,1456704147445264,0.03999516798964131,0.17428964564357552,0.009223146742554934
67,1456704147467265,0.04255321565751071,0.16095871173456347,0.03154049208848327
68,1456704147484266,0.053930211830042346,0.13373912304288346,0.06623407921544949
69,1456704147505271,0.06865519319858114,0.0984834140610024,0.1011993480395284
70,1456704147528973,0.08174928633307686,0.06325076640688275,0.12891934890768725
71,1456704147542943,0.08964228317814603,0.03502449311381624,0.14642673430335756
72,1456704147565677,0.09064029485146768,0.017617666410478156,0.15380582348807084
73,1456704147588680,0.08500796166158492,0.0112548776125116,0.15247260529020076
74,1456704147603681,0.07480573334769329,0.013490062866070142,0.14425094292376092
75,1456704147626189,0.06347875527612427,0.020696990981913355,0.13146846270735574
76,1456704147648697,0.05504122900558686,0.029408778997596377,0.11743192157728603
77,1456704147663699,0.052870119302515554,0.03712210881500442,0.1063627528057006
78,1456704147685700,0.0585152088671685,0.04256056651796239,0.10240466401482531
79,1456704147708701,0.0710904526344246,0.04559252256518555,0.1081271654651218
80,1456704147724215,0.08751850113852122,0.04697447526157618,0.12331299564879859
81,1456704147752723,0.10344669112027016,0.04797279128163525,0.1445969201743278
82,1456704147768724,0.11446418730901521,0.049884486294007525,0.1661117804415007
83,1456704147783724,0.11736001879499873,0.053572785183578685,0.1809911948344195
84,1456704147805725,0.11120932740155431,0.05921858689331566,0.18337394443294416
85,1456704147830931,0.09790432379097833,0.06642172974852023,0.17039058579348165
86,1456704147844136,0.08171237689775156,0.07457585982475928,0.14351565768115512
87,1456704147866145,0.06785364431200881,0.08323322330435962,0.10874353952474515
88,1456704147889134,0.06066981125103733,0.09215323374347642,0.07536676940177779
89,1456704147904135,0.062186408159763305,0.10096719686561878,0.05359656001231175
90,1456704147926176,0.0716089129733483,0.10872912074248241,0.051648100582879164
91,1456704147949192,0.08582184125994995,0.11376599961904682,0.07310116098617818
92,1456704147970495,0.10060296550876559,0.11406357777202371,0.11532897261313138
93,1456704147986193,0.11208972548865402,0.10807079897741674,0.16956906382868778
94,1456704148009195,0.11795586159289324,0.09553420836379163,0.2228380454218729
95,1456704148030213,0.11781800604493983,0.07796972363071833,0.26143857795056985
96,1456704148046221,0.11275955211487322,0.058631400461213276,0.27527270557156924
97,1456704148069223,0.10446077591133629,0.04209892813364644,0.2616395617510274
98,1456704148090224,0.09477055583812116,0.033630023528615736,0.22701598521315214
99,1456704148106225,0.08615018530248315,0.03826244396815453,0.18585347868279156
100,1456704148129252,0.08243082968285848,0.0595780147345073,0.1564995204660465
101,1456704148150260,0.08865865095905512,0.0982146017080908,0.15535636936761316
102,1456704148166261,0.10925872805999068,0.15056192072355676,0.19095833193488343
103,1456704148188262,0.14511986090189874,0.2084219047966107,0.2598829338343225
104,1456704148209263,0.19138584182618434,0.26046163467070516,0.3463693892829903
105,1456704148225814,0.23777007931027508,0.29570304921263346,0.4267883333409917
106,1456704148249375,0.2719833884336156,0.30809672420586287,0.47824343123337765
107,1456704148270390,0.28500773631932214,0.30003995162746355,0.4881021249244931
108,1456704148286388,0.27548942374988145,0.2824464385826779,0.4598874004870665
109,1456704148309392,0.2505997727487948,0.27029003156658465,0.4122322249920246
110,1456704148330028,0.22268622656994866,0.27514601334647215,0.3709920009493075
111,1456704148345544,0.2036136154592377,0.2986154710449224,0.35795662531334893
112,1456704148368500,0.1998580014871065,0.3306874455884911,0.3811764340590554
113,1456704148389710,0.2105583691538478,0.35446823449670634,0.4312974147891661
114,1456704148405501,0.22893832976612144,0.3548665798802877,0.4857010426558
115,1456704148429716,0.2459358121590822,0.3263458733376862,0.5184907809460031
116,1456704148452430,0.2540490899389425,0.2754053694132765,0.5113688097163057
117,1456704148466431,0.2496685545312815,0.2166930731910898,0.4602069383229424
118,1456704148489432,0.23338376961408572,0.1654309108973103,0.37488097856609975
119,1456704148512435,0.20889543508962602,0.1306466380405626,0.2737517573448827
120,1456704148525949,0.18136025193375543,0.11260082418383467,0.17644466706687512
121,1456704148548459,0.1556596517749849,0.10492451626682207,0.09819794107225058
122,1456704148571458,0.1349888015987747,0.09937675328999912,0.047105005640061495
123,1456704148585459,0.12022955246393893,0.09020616523825567,0.023927899908792787
124,1456704148608492,0.11032348870605335,0.07603782558578928,0.023598957999648666
125,1456704148631978,0.10333502570648524,0.059079341508211224,0.03760530691087474
126,1456704148645484,0.09752318102432812,0.042909959022074534,0.056588263965917186
127,1456704148668486,0.09184684040615267,0.030414643408086566,0.0726094097064556
128,1456704148691487,0.08584963552377654,0.022777262284835037,0.08072708668750418
129,1456704148705488,0.07934096487978409,0.019586017362156496,0.07969616160111544
130,1456704148729207,0.0722735751645714,0.019572956722336738,0.07166581887896185
131,1456704148751464,0.06482688932277181,0.021418539941989938,0.0608782707936673
132,1456704148766429,0.05744368435583851,0.024239594102379036,0.051732746583228365
133,1456704148788461,0.0506876102986279,0.027640732523744962,0.04696886928390103
134,1456704148812432,0.04503395419766214,0.0314259371889179,0.0467528403062225
135,1456704148826373,0.04074236002298555,0.03520303334789427,0.049016398886167524
136,1456704148848638,0.037823827935653774,0.038155792345486064,0.05077314046497239
137,1456704148871639,0.036055231926504436,0.03917659480918518,0.049687200749203735
138,1456704148885639,0.0350606476498021,0.03734002459211328,0.045125036772843574
139,1456704148908640,0.034495625118116255,0.03245791463628962,0.03827858292750566
140,1456704148932149,0.034262391701661545,0.02537691532199468,0.03147205679236555
141,1456704148953156,0.03459436938396297,0.017835267922830345,0.027133902791898055
142,1456704148969157,0.035914367322089455,0.011944224602426945,0.02694679077675819
143,1456704148992350,0.03853182928439695,0.00951162594125682,0.031440906097336414
144,1456704149013161,0.04234858818303169,0.011436880211099796,0.039989953309707366
145,1456704149028963,0.04673332804614482,0.017355777701858952,0.051027539682332326
146,1456704149051270,0.050640843248986635,0.025662808700263863,0.062388910232708886
147,1456704149073271,0.05293836967810553,0.033971425323124214,0.07183320557888069
148,1456704149088454,0.052808119823157626,0.03993459220559668,0.07776297054241159
149,1456704149112273,0.05007485894979665,0.04214635852554512,0.07990025226687475
150,1456704149133802,0.045348704195800685,0.040710829882580166,0.07948792459719727
151,1456704149148803,0.039916888622282175,0.03715953884935815,0.07873969856156837
152,1456704149170804,0.03535871518232862,0.03371980192857313,0.07968448781170366
153,1456704149192804,0.032954010075024284,0.032273961144589,0.0829186518286632
154,1456704149208806,0.03310769280680856,0.03348055566922244,0.08689368903852632
155,1456704149230820,0.03509470687725764,0.03641580696432223,0.08821164272444584
156,1456704149252330,0.03731321066059989,0.03886520133553637,0.08299711546899695
157,1456704149268332,0.03796435445642477,0.0381904079327829,0.06888756005424898
158,1456704149290333,0.0358423365279047,0.0325463850507593,0.04683151818421892
159,1456704149312334,0.030875411055405925,0.022083179705500437,0.021926626502906877
160,1456704149328990,0.02422532502936085,0.009669017195934678,0.0028711112469795275
161,1456704149350546,0.018003954375832566,0.0007249152869006698,0.0
162,1456704149373547,0.014808478617271185,0.001988141361367769,0.022227017089921634
163,1456704149388548,0.01721888994898245,0.019353823086574955,0.07357651079002712
164,1456704149410551,0.027257769363660256,0.055345626967763385,0.1503801032796247
165,1456704149433562,0.045776237899596256,0.10717010541410242,0.24044463375627492
166,1456704149448569,0.07187104775323276,0.16647074521079563,0.32526006469660695
167,1456704149470570,0.10263675286407761,0.221479746842455,0.3853713750815019
168,1456704149493571,0.13359611884131947,0.26115826675491816,0.4074866089280726
169,1456704149508572,0.15987277892746748,0.27957632430943713,0.39044665501873516
170,1456704149531045,0.17766584494663942,0.27819049171926147,0.3469759471123908
171,1456704149553510,0.18528892664489308,0.2646005914587556,0.29974124398521296
172,1456704149568511,0.18333922713431872,0.24843843876793403,0.2729065901944932
173,1456704149592513,0.17420090672412,0.23675978867511044,0.28255844889470827
174,1456704149613514,0.16135194672291636,0.2313721346026461,0.3299844847171542
175,1456704149628929,0.14867832765327868,0.2291165239521563,0.40066248881664585
176,1456704149650417,0.13973107515531116,0.22447187054822046,0.46953291157085253
177,1456704149673419,0.1368976861052226,0.21286942327950958,0.5105839823038562
178,1456704149688419,0.14062114433646936,0.19298969545408642,0.506875212478773
179,1456704149712421,0.1489647003814228,0.16703644218465694,0.4567215595443272
180,1456704149733429,0.15794370836245833,0.13921742359489853,0.37339289450365987
181,1456704149748434,0.16283966320369805,0.11360312058973833,0.27883891120234533
182,1456704149770435,0.16005848298928896,0.09256593622283645,0.19484752822844245
183,1456704149793436,0.14855227758024492,0.07634597334829579,0.13582117134620036
184,1456704149808437,0.13003729472876335,0.06361602887541362,0.10574869739340373
185,1456704149838865,0.10805041896701716,0.052591685955243085,0.0994730708262997
186,1456704149853866,0.08652643249400216,0.04216712876259097,0.1066743459354838
187,1456704149868866,0.06859750490552753,0.032601926924217595,0.11656856896356578
188,1456704149890868,0.055950670531536614,0.025459045085234486,0.12166195307467337
189,1456704149913870,0.04877028093180647,0.02282494160224876,0.11949531065997629
190,1456704149934959,0.046138683296997024,0.02617849388317442,0.11208519744889751
191,1456704149950954,0.04663681107222504,0.03542600073949472,0.10368013005439265
192,1456704149974956,0.04882598722269746,0.04854362691063934,0.0981073477789819
193,1456704149995257,0.05144935683407166,0.06202891161758441,0.09693459193017348
194,1456704150010956,0.05345411713052273,0.07202431359957759,0.0990064219407727
195,1456704150033966,0.054026504700498634,0.07565430560756553,0.10120892070779934
196,1456704150055305,0.05269678653323657,0.0720024048823029,0.09995670339353628
197,1456704150070975,0.04943238604264062,0.06233977543291869,0.09280019185153782
198,1456704150093976,0.04465604683475972,0.04957146671286845,0.07955309179743952
199,1456704150114978,0.03920379574186642,0.03717113430527513,0.06250236675258983
200,1456704150131021,0.0342184444501978,0.028025513878362083,0.04564894427402551
201,1456704150154249,0.030911213490096665,0.023607760315539985,0.033337594896166035
202,1456704150175247,0.03018105723775156,0.023753264731656173,0.028816431711350274
203,1456704150191250,0.032243998590930696,0.027055720703830114,0.03321005258404114
204,1456704150214242,0.036495199730225365,0.03164173061018788,0.04522866656213198
205,1456704150234401,0.04170040603047071,0.03594692239553817,0.06171861485280928
206,1456704150251409,0.04641709738569984,0.03916503066453651,0.07886989763708754
207,1456704150274408,0.04946336300009596,0.041244112677330705,0.0935945890331007
208,1456704150295409,0.05029763893523138,0.04255677379370305,0.10445716759662538
209,1456704150311410,0.049209532290917485,0.04351603016561859,0.11173182236912862
210,1456704150334138,0.047201433213586934,0.04433899775001402,0.11661447025940469
211,1456704150357147,0.04549293756537358,0.04495989904534773,0.12004654278598581
212,1456704150371148,0.04480934799583007,0.04498257014252484,0.12177369066882951
213,1456704150394149,0.04487395309040222,0.04365879859575873,0.12014331917091632
214,1456704150417150,0.044517277100366716,0.04005712688926432,0.11285831021673383
215,1456704150431162,0.0424626460186613,0.033605975368122654,0.09854927078161999
216,1456704150453456,0.03840989100674101,0.02494784593992654,0.07864907583852196
217,1456704150476456,0.03383951451056645,0.01667398560604373,0.058733778137619055
218,1456704150491457,0.03206576915451283,0.013313429881869296,0.04839805346366711
219,1456704150520044,0.037339138104050144,0.020149223992716844,0.05902523097375381
220,1456704150536534,0.053134630005013894,0.04102081821994901,0.09956705760390966
221,1456704150550535,0.08014723728944737,0.07597966866062988,0.17156983717616506
222,1456704150574536,0.11485947494185342,0.12007893026059559,0.26572823823783603
223,1456704150596538,0.14963055790007487,0.164338865994093,0.36242645609076146
224,1456704150610538,0.17486713734112813,0.19896775213093024,0.43739705957992375
225,1456704150634049,0.18290234592813392,0.21762361850248602,0.47101024380797996
226,1456704150656556,0.1720087665790621,0.22062849685990027,0.4571759802340861
227,1456704150671556,0.14828658829012428,0.21522441381128243,0.407249416842381
228,1456704150693558,0.12386912121183341,0.2122475360242136,0.34645955144370966
229,1456704150716560,0.11190250912424489,0.22048425166300553,0.30405282587153887
230,1456704150738578,0.1207406008881002,0.24154537161138823,0.30141302484543864
231,1456704150753579,0.15030191028734097,0.2682749282174981,0.34339420914808755
232,1456704150776580,0.19231384077552086,0.2879920414983287,0.41663915079008046
233,1456704150798581,0.2340889041362693,0.2890428549934928,0.495412952520088
234,1456704150813583,0.2637028690518135,0.26700805363237595,0.5520307627102581
235,1456704150836660,0.2739599301275128,0.2270114579447233,0.5670757370346878
236,1456704150857697,0.26367928591976847,0.18097625585162674,0.5351256062277259
237,1456704150873728,0.23671234835065616,0.1417333535400131,0.4641980447674359
238,1456704150896663,0.20004476594116938,0.11746184078618034,0.370325418425568
239,1456704150917663,0.16179971378369443,0.10918743577185323,0.27084634042051303
240,1456704150933705,0.12917105738509804,0.11192607377986154,0.179749703224842
241,1456704150956676,0.1064564857911841,0.11812411166153296,0.10612792823009572
242,1456704150977678,0.09396683412552072,0.12128940961130426,0.05465416649854921
243,1456704150993878,0.08853205811335872,0.11818548528319568,0.026565035799460925
244,1456704151016898,0.08545540934070539,0.10909448344505128,0.020403952016923802
245,1456704151038890,0.0808904329569807,0.09665096601639714,0.03247585136170453
246,1456704151054103,0.07344543869491933,0.08412287618843724,0.057173059154102826
247,1456704151077105,0.0643737713849693,0.07388559795104212,0.08739710984263625
248,1456704151097912,0.0564892362091976,0.06657899725161827,0.11539127074127563
249,1456704151113894,0.05247910925193489,0.06117297418911763,0.13419032470188053
250,1456704151136194,0.05341829494806953,0.05581038071127012,0.13943305336729486
251,1456704151158319,0.05811044648144189,0.04894690320198419,0.13074400297262098
252,1456704151174316,0.06353278927459412,0.040207125506985276,0.11181079711211617
253,1456704151195312,0.06620345173068577,0.030582648171644803,0.08890161895012832
254,1456704151218199,0.06381239182272107,0.021950299749072588,0.06847534605970405
255,1456704151234402,0.056245224094832486,0.01619654366671242,0.05501501369745818
256,1456704151256374,0.045464658620078896,0.014376162791636045,0.04994670883167802
257,1456704151278385,0.034428674592609614,0.016269056861051175,0.05182263185768434
258,1456704151293385,0.02575632994005191,0.02048810506313982,0.05738717003566879
259,1456704151315402,0.020840277997822575,0.025050336440333318,0.0629609498009156
260,1456704151338386,0.019687182393248417,0.02814474263117276,0.06568226963851458
261,1456704151353324,0.021313314069462002,0.02876521262021401,0.06432048960455253
262,1456704151375380,0.024312284152207524,0.026956446322994477,0.05949367677623319
263,1456704151398328,0.027302230089896205,0.023616106204852612,0.05324055022203108
264,1456704151414328,0.02918775741786834,0.02000406491146485,0.04810279595401695
265,1456704151436347,0.02931632783453185,0.017220449741725926,0.046087376555722225
266,1456704151459181,0.027593855272198025,0.015884444127808768,0.04793786942204769
267,1456704151473379,0.024536182568578757,0.01610576535067241,0.05300266289312076
268,1456704151495377,0.021181695652305293,0.017676522326811623,0.05971755634071235
269,1456704151518377,0.018818977554526117,0.020317413319340262,0.0664376540578068
270,1456704151534349,0.018574481754006344,0.023826718298538597,0.07219312387971916
271,1456704151555711,0.021000719832536166,0.028069925578141735,0.076993904887523
272,1456704151578712,0.025833273386556627,0.03284605131044557,0.08154610136632416
273,1456704151593712,0.03201514513040572,0.037719271878157705,0.0865519369878703
274,1456704151615988,0.03796836669002359,0.041907766607968785,0.09199451180217741
275,1456704151639657,0.0420125084629176,0.04431487100686973,0.09682822659044349
276,1456704151653658,0.04282366601839718,0.04377739414530311,0.09928550298777848
277,1456704151675888,0.039848851558014944,0.03954294791335276,0.09770857008119731
278,1456704151698661,0.03358908375310385,0.03185767549254358,0.0916078157588778
279,1456704151713663,0.025656121088673073,0.022420708888746504,0.08258604455978198
280,1456704151735546,0.018535692382378052,0.01442944217035244,0.07475193651579068
281,1456704151749596,0.015062510434039165,0.012031430872044068,0.07423546999805744
282,1456704151771842,0.01770729689367301,0.019197539417818092,0.08757565464957442
283,1456704151795557,0.02785973940916135,0.03828311471264564,0.11923173149171581
284,1456704151809564,0.0453127500064863,0.06875112778309884,0.1690792923554059
285,1456704151832069,0.06807675903800392,0.10659066189015841,0.2310480808608473
286,1456704151854582,0.09254080729479008,0.144838127689296,0.2938135298985432
287,1456704151869620,0.11399580626926543,0.1753254255600103,0.3437878246503866
288,1456704151891586,0.12765543821954123,0.19137897926390318,0.369747022109218
289,1456704151915844,0.13026814719495738,0.19071257154652718,0.36750537407557893
290,1456704151929806,0.12193811781878926,0.17729475984869342,0.34260341341838346
291,1456704151951747,0.10714904988038651,0.1608522181600744,0.30948549890657684
292,1456704151974534,0.09395617172940161,0.1534042484220636,0.28696659575868033
293,1456704151989606,0.09120084637754484,0.1638559424605108,0.2912948651036347
294,1456704152011751,0.10481049602658737,0.19322056411054586,0.3292724927218315
295,1456704152034973,0.13489800321260415,0.23319081467275943,0.39432102141906933
296,1456704152050295,0.17514333260540618,0.2692123964293607,0.46763906032286984
297,1456704152072268,0.21498787719163517,0.28681822736992535,0.5245901976629148
298,1456704152095284,0.24377057847443923,0.27811356467709614,0.543928289528715
299,1456704152110355,0.25471108870638076,0.2450814669530446,0.5158502491396908
300,1456704152132067,0.24665366381316836,0.19808912849465918,0.4453097261899223
301,1456704152154875,0.22306395092577294,0.15066240872991682,0.3493868522984871
302,1456704152169627,0.18961856087169793,0.11353516703223121,0.2503676566310906
303,1456704152191802,0.15215393232160393,0.09097918502874477,0.16793434790373177
304,1456704152214802,0.11568158851487262,0.08073546514309318,0.1137286226606067
305,1456704152229882,0.08406530922366777,0.07681435016942294,0.08985228443193582
306,1456704152252351,0.05980362755096764,0.07321885426001092,0.09078157961462618
307,1456704152275179,0.0438405933490475,0.06666261351554338,0.10693300197289334
308,1456704152290181,0.03564239864516961,0.057280922631054616,0.12814600715814575
309,1456704152312347,0.033655269943321124,0.04752543044417974,0.146133885300582
310,1456704152334928,0.035967467433866356,0.040246240623036875,0.1557388653041191
311,1456704152349438,0.0408534990823044,0.037074273066432135,0.15520028710289552
312,1456704152371442,0.04697652045342192,0.0377683601128043,0.14566625314018208
313,1456704152394649,0.05326687404253615,0.040586492665083025,0.130148173831917
314,1456704152409699,0.058704269784297006,0.043292485773695016,0.11221207919723217
315,1456704152432330,0.0622564822326238,0.044229982913140876,0.09482461593817589
316,1456704152455165,0.06305230035976411,0.04296625585380369,0.07973196699945721
317,1456704152470166,0.06064899349392246,0.04025634424911867,0.06749451871145899
318,1456704152492315,0.055188793344006774,0.03741181633965568,0.0579691499449177
319,1456704152515168,0.047356359619057514,0.03545314070020456,0.050843171008302254
320,1456704152529963,0.038200994074511885,0.034529666955580796,0.045905664720151264
321,1456704152551836,0.02892905139196314,0.03392549716699435,0.043009683204179965
322,1456704152575198,0.02071553112496452,0.03261654066341946,0.04190705969815229
323,1456704152590134,0.014535541286507234,0.03002199350681214,0.04217772482158396
324,1456704152613843,0.011021505162464099,0.026500829984228078,0.04335921403978156
325,1456704152635146,0.01037204179109091,0.02330990707983202,0.04521127730423167
326,1456704152650140,0.012340206231864577,0.02203554460853109,0.047908691732423715
327,1456704152672141,0.01631663567988099,0.02377813571389244,0.051947283334510756
328,1456704152695143,0.021503399044689172,0.028501939323672128,0.05774972501378844
329,1456704152710144,0.02714479490507099,0.03490163713817071,0.06524771551216493
330,1456704152732163,0.032743086095090426,0.0408888399759419,0.07380253805800605
331,1456704152754973,0.03815180252882691,0.04446863477112469,0.08255746446404325
332,1456704152769965,0.043454940272690715,0.04454609347702454,0.0909155764461679
333,1456704152792254,0.048661849355216884,0.041237871781548516,0.09869499100146391
334,1456704152815233,0.05340864411126867,0.035562830986911584,0.10577211108210743
335,1456704152837901,0.056880859658591604,0.02875975828168892,0.11146070532260537
336,1456704152851574,0.05801447084858998,0.021687688688497988,0.11415688263914668
337,1456704152874570,0.055878162258320034,0.014685489923299697,0.11171743743381074
338,1456704152897720,0.05014046788951369,0.007978420532875848,0.10266515532066366
339,1456704152912571,0.04157912039891165,0.002400879303346677,0.08783808798031288
340,1456704152935298,0.032514386545207254,0.0,0.07174344112031046
341,1456704152957591,0.02686968656088485,0.004062583707432961,0.06275479481900935
342,1456704152971597,0.02950857798617704,0.01828882493563556,0.07147531424150792
343,1456704152994598,0.044734411829399856,0.04518364256161468,0.10716472116375089
344,1456704153017937,0.07428941970379674,0.08415601920788586,0.17306996457620663
345,1456704153032388,0.11561299909319947,0.1301866927759061,0.26252908858015533
346,1456704153054704,0.16130560743061426,0.17405407387288924,0.35824576229937
347,1456704153078005,0.20054046700964367,0.20471899475857974,0.43641264764935844
348,1456704153091999,0.22244161704871823,0.21345175994883253,0.47511726162906615
349,1456704153115062,0.2203412504969983,0.19806404800716407,0.46366766729444464
350,1456704153137798,0.1949955633812916,0.1650407129061996,0.40816360217714215
351,1456704153152090,0.15505971462031354,0.1280666065055867,0.33022909458339594
352,1456704153174800,0.11442711429951358,0.10316153769169961,0.2594172709389503
353,1456704153198127,0.08751007563917104,0.1023579934101413,0.22276916477639971
354,1456704153212097,0.08429113504305587,0.12860574710478906,0.23561301604155674
355,1456704153234808,0.10691380229011553,0.17412444133612873,0.29647838360536205
356,1456704153257831,0.14900977652800595,0.22309910910685551,0.3874259087393342
357,1456704153271826,0.1980318523231191,0.2578520321112638,0.4797057190909985
358,1456704153303830,0.23971835197808364,0.26595567056103,0.5431825032998051
359,1456704153317833,0.2628597764774346,0.24503277205485713,0.556491382021493
360,1456704153332242,0.26238226759187316,0.20295575989002976,0.5142000296576417
361,1456704153354996,0.23974836142929012,0.15355019470038697,0.42807325757068426
362,1456704153377997,0.20123321711198894,0.11029768080578328,0.321855038220483
363,1456704153391988,0.15549028948450888,0.08131905828486814,0.22192352893456524
364,1456704153414926,0.11139317381040485,0.06768715491852474,0.14813764737950852
365,1456704153437918,0.0762870439729124,0.06498842132245633,0.10874182589597226
366,1456704153451584,0.0545725671103885,0.0665656396114206,0.10056854382707131
367,1456704153474948,0.04689795112580541,0.06665950566296172,0.11299996932989226
368,1456704153497580,0.05038249968276706,0.06229638855345829,0.13304329875091703
369,1456704153512580,0.05994178561595914,0.053588970312204755,0.14949131769543716
370,1456704153535091,0.07024583823766442,0.04279120283314947,0.15534698435793465
371,1456704153557432,0.07750802967687555,0.03283513955630759,0.14855391469215268
372,1456704153579427,0.08037304682775823,0.02607295089590596,0.13139375356101488
373,1456704153594763,0.07963584891393426,0.023616667965498283,0.10894880330423642
374,1456704153617730,0.0771240904513596,0.025268842141260323,0.08708030341121509
375,1456704153632222,0.07443042561629258,0.029811333989544865,0.07049518903132083
376,1456704153654846,0.07210269376608044,0.035428971784517004,0.06147875358630182
377,1456704153677554,0.06955425648936266,0.04018175287649042,0.05960068934444822
378,1456704153691735,0.06561229247768822,0.04251504520025735,0.06229078969045211
379,1456704153714660,0.05938127531482623,0.04171254948420184,0.06592675233874237
380,1456704153737656,0.05096511053070736,0.0380834254813331,0.06707707272428613
381,1456704153751666,0.04163643934931177,0.03274825229498986,0.06361558313836671
382,1456704153774668,0.03333478793830008,0.02713862025939005,0.055424700412099286
383,1456704153797948,0.027786520336265007,0.022506353125059865,0.04443040378088925
384,1456704153811896,0.025769755543867772,0.019676271539617284,0.03391565276125395
385,1456704153835111,0.02691644442016622,0.0190531437540996,0.027376220746119197
386,1456704153858226,0.030069619591147432,0.02072170419989722,0.027379917399647128
387,1456704153872105,0.03387905301967951,0.024485296081048148,0.034838500437692356
388,1456704153895300,0.03724358596809325,0.029825988064766596,0.04888685487370505
389,1456704153918301,0.039422195951150686,0.03588934620575583,0.06732812148740641
390,1456704153932285,0.039947071775862826,0.04160108023160896,0.08741737331425498
391,1456704153955640,0.03860480757475465,0.04593091776526723,0.10665946946717217
392,1456704153977648,0.03560417031559758,0.04821494760928083,0.12332478790067457
393,1456704153991643,0.03178283790524294,0.04839084142353383,0.136533455131292
394,1456704154014644,0.028569201877064236,0.04700377353113329,0.1459623371584224
395,1456704154037757,0.02753130436562219,0.04491199476241005,0.15138706928565548
396,1456704154059766,0.02964021954842158,0.04277634938039328,0.15229981904708545
397,1456704154075063,0.03463898928866822,0.0406114274426068,0.14777834625513753
398,1456704154097767,0.040938488493891305,0.03775681364260691,0.13674987691859852
399,1456704154120051,0.04622204174427749,0.03345927702992426,0.11879649850542448
400,1456704154134937,0.048581124586533075,0.02788670096387254,0.09548734039368217
401,1456704154157022,0.04772036858077871,0.02304270391557449,0.07177414819874475
402,1456704154189023,0.04567116770539788,0.022940914779148586,0.05650117114840752
403,1456704154195023,0.04655702350059422,0.032622161801125454,0.06104621146408119
404,1456704154217199,0.055244413216783056,0.05610033858375099,0.09579652406592809
405,1456704154240134,0.07516891562364075,0.09392848802183529,0.16534132660353648
406,1456704154254880,0.10615112511251693,0.1415346581762825,0.2643389318991881
407,1456704154276846,0.14334097125861373,0.1895180001118416,0.3763693099364149
408,1456704154300057,0.17822211561698048,0.22650039543748174,0.47732829858770304
409,1456704154314982,0.20177524876878003,0.24387438794882954,0.5430691465866143
410,1456704154336609,0.20868458587111954,0.24033418158760536,0.558656863240059
411,1456704154360123,0.2004395367862852,0.2234709479929483,0.5250950296275124
412,1456704154374124,0.18523887821766738,0.20688384682107458,0.4600453692405022
413,1456704154404126,0.17429402507013392,0.20381626911455916,0.39180276219028215
414,1456704154419127,0.1764501174816145,0.22051293544693054,0.3489158337106251
415,1456704154434633,0.19403977802560482,0.25276080093708797,0.3496551561080265
416,1456704154457193,0.22190672354166377,0.2874109026900711,0.395462851319402
417,1456704154480145,0.24976073804999488,0.30819451770609657,0.47081027253153185
418,1456704154495190,0.2666143249749665,0.3030625528542403,0.5492573444029313
419,1456704154516514,0.2652422764486701,0.26952711303354604,0.6031059592576696
420,1456704154540255,0.24460960717441985,0.21551489651975356,0.6128959099829361
421,1456704154555281,0.20937744585567317,0.15557562340462716,0.5733557870141918
422,1456704154577278,0.1673278668932381,0.10459229010425238,0.493908387494973
423,1456704154600257,0.12643571718236546,0.07211323630040962,0.3939273439419197
424,1456704154614260,0.09280610810136403,0.05969913462426713,0.29505382017621595
425,1456704154637088,0.06970537389191415,0.061918539693266134,0.21403365362244572
426,1456704154668584,0.05744404537737218,0.06991361857300529,0.15885564428069207
427,1456704154674944,0.053898937542976644,0.07557724598387981,0.12888810224679506
428,1456704154696586,0.05550153189402889,0.07451973720752121,0.1177987214473813
429,1456704154719871,0.058453473997277974,0.06686616362008886,0.11735304597230145
430,1456704154735373,0.059873196450193504,0.056020645377237506,0.12053201394281866
431,1456704154757380,0.058556646681874165,0.04637021111153549,0.1231690367468606
432,1456704154779383,0.05509567531179511,0.04113904204281414,0.12404840816578463
433,1456704154795384,0.051316248961703725,0.041233948136411284,0.12389524214029768
434,1456704154817384,0.04928184868429851,0.04527547409721827,0.12389702834416964
435,1456704154840467,0.05026430671361239,0.05049162884220545,0.12443899908105684
436,1456704154854802,0.05407195423914474,0.053947827190558476,0.12461851481732698
437,1456704154876476,0.05901377417682713,0.053632419557803665,0.12272907680408833
438,1456704154899472,0.06257153023027659,0.04907991490049436,0.11735179833263085
439,1456704154914473,0.06254023041695414,0.041413100543609825,0.10832730134734772
440,1456704154937268,0.05811313323931685,0.0328672323059685,0.09702592351341208
441,1456704154960093,0.05034524778399697,0.02598578676210022,0.0858610101056763
442,1456704154974813,0.04172141358478812,0.022750275789242384,0.0774196082295564
443,1456704154996813,0.035035411381025436,0.023932891639205357,0.07363619178500812
444,1456704155020031,0.032151969377456686,0.028906573408403254,0.07526812057041204
445,1456704155035222,0.03325314370680945,0.035984138517261705,0.08178227063345436
446,1456704155056774,0.03688883711902756,0.04313638642831973,0.09164518521007055
447,1456704155079770,0.04074873605644811,0.04877636136118354,0.10288457209471073
448,1456704155094998,0.04275017193074929,0.05228516690042519,0.11370862232572437
449,1456704155117002,0.04193108144604902,0.05408621607996803,0.12295927115561234
450,1456704155140100,0.038773970226729924,0.05526606268802482,0.1302175928728668
451,1456704155154799,0.03486522616652444,0.056905830750750584,0.13549727597224578
452,1456704155177134,0.03207720656897138,0.05938604384261137,0.13866782535736416
453,1456704155200134,0.031650161088307635,0.06196034427749742,0.13895304367743755
454,1456704155215018,0.03358887460177437,0.06286023842894757,0.13492006939246823
455,1456704155237114,0.03666240226042689,0.06005704710024878,0.12523441056349185
456,1456704155260163,0.03905700971922949,0.05254915948442353,0.1101072027241429
457,1456704155275167,0.039477317837439796,0.04173253499164862,0.09288365655279547
458,1456704155296835,0.03828714819507961,0.03217864707009572,0.08081545197271905
459,1456704155319843,0.038149596770625155,0.03111946690783251,0.08402330723414157
460,1456704155342160,0.0436361805135193,0.04626282226093522,0.11223316150867019
461,1456704155357251,0.05958059511657337,0.08230138101292364,0.17001460752808037
462,1456704155379160,0.08857885263169656,0.13743166829453446,0.25249240672008216
463,1456704155403177,0.12870361644239048,0.20181019788262883,0.34406211626587946
464,1456704155417179,0.1727624421824749,0.259489436258426,0.4218125645449181
465,1456704155440249,0.20996807834453254,0.29378941759471183,0.4630868364832026
466,1456704155462342,0.2297176147030499,0.2939801195321478,0.4540276636623682
467,1456704155477244,0.2258415824799174,0.26000867308523906,0.39501408497779317
468,1456704155500249,0.19920209931997246,0.20285498196932114,0.30062617051998936
469,1456704155523288,0.15747800909130816,0.1404778398527362,0.19482407519424952
470,1456704155537093,0.11259580889098798,0.09149065346538506,0.10397771516953679
471,1456704155559134,0.07715709978485046,0.06927461580819383,0.05029860541081074
472,1456704155583169,0.061015044091115724,0.07832782907856037,0.04702314171399585
473,1456704155597172,0.06864460889436227,0.11344575425684376,0.09565081820229537
474,1456704155620171,0.0977920701958708,0.16164096415774604,0.18530564691438808
475,1456704155642859,0.13993180872693048,0.20635130727487985,0.29466005602018036
476,1456704155657121,0.18278370557288096,0.23292754951392577,0.39688923051639974
477,1456704155679862,0.21433746013148564,0.2336265875609363,0.46703063274118767
478,1456704155703130,0.22686165983251044,0.210016502876791,0.48940898618920226
479,1456704155717130,0.2190514321971571,0.17153943753913894,0.4620102561565599
480,1456704155739452,0.19537608212545504,0.13087995521900694,0.39585948745004
481,1456704155763469,0.1633365951185866,0.09854852639426753,0.3099284511738338
482,1456704155776739,0.13037443229553777,0.07935909711446897,0.22419800740144288
483,1456704155799860,0.10184844535039994,0.07210017270790745,0.15393415646245448
484,1456704155822763,0.0804393322473903,0.0718177645667852,0.10695889857664778
485,1456704155836971,0.06654994714281491,0.07300928215185988,0.08386324800469377
486,1456704155859489,0.05908194583920815,0.0720709038849357,0.08002704991920362
487,1456704155882716,0.0561710874853503,0.06814961922892732,0.08825230050013741
488,1456704155896484,0.05576357196910841,0.06250296695551016,0.10117538867895529
489,1456704155919789,0.056088250627374305,0.05710226830985928,0.11294886275792267
490,1456704155942842,0.056031367169723116,0.05333775981453237,0.11999190259166745
491,1456704155956804,0.0552868254316881,0.05138533438028182,0.12093814909754855
492,1456704155979801,0.05416275062222489,0.050344172824826436,0.11611816760358808
493,1456704156002020,0.05311640826384216,0.04889491396825049,0.1069001223622964
494,1456704156017024,0.05229196201733035,0.04605537035160622,0.09507550938305519
495,1456704156039518,0.05136058831022048,0.04164046721216622,0.08238187777805697
496,1456704156062148,0.049752019389383735,0.03625219451897852,0.07022219730309431
497,1456704156077146,0.04706474485957434,0.030915545168592545,0.05958046955986055
498,1456704156100153,0.04332752808796468,0.02662915406969614,0.05104246662295764
499,1456704156122151,0.038965036005449386,0.024033869856787782,0.04481792681823563
500,1456704156136968,0.03457709960281221,0.023256679453404955,0.040757884891959265
501,1456704156159793,0.030719841509147253,0.023909116740054664,0.03843940379370667
502,1456704156181757,0.02777844266980616,0.025210651242865405,0.03734035949267976
503,1456704156196758,0.02591752742605789,0.026215115756399548,0.03702708262660631
504,1456704156219991,0.02508884020375124,0.02611352327563397,0.037271157505486194
505,1456704156242205,0.025112437296391826,0.024545947183563215,0.03808792370047419
506,1456704156257206,0.025829177537147655,0.021790041263129,0.039720641486556
507,1456704156279208,0.0272475362371554,0.018689167632670887,0.04255103980028602
508,1456704156301421,0.02956069461386943,0.016307116635345766,0.04689933649251518
509,1456704156317209,0.03296633159067513,0.01547789204449896,0.05274940214767856
510,1456704156340115,0.037380671699234466,0.016497569900516613,0.05955205373655871
511,1456704156361121,0.04227845884878636,0.019113708817112503,0.06631962734992912
512,1456704156376123,0.046841114003249404,0.022789709257253515,0.07211138358750352
513,1456704156400149,0.0503489638387765,0.027071190141711308,0.07669455378537779
514,1456704156422143,0.05253885783292848,0.0318186079082395,0.08086969215176197
515,1456704156437116,0.05368050340574058,0.03712602444685125,0.08603109751847142
516,1456704156459305,0.05434125295130542,0.042930319866251905,0.09307537134357212
517,1456704156482145,0.054986009690550515,0.04855759649985267,0.10136481553412904
518,1456704156506148,0.055613727747428066,0.052583630961375354,0.10854598976423398
519,1456704156520144,0.05562678178625436,0.053254305327225526,0.11147723754017073
520,1456704156542114,0.054067130014887575,0.049367639465465844,0.10777022029535185
521,1456704156566144,0.05019889568228372,0.041202884459010276,0.09711840232135405
522,1456704156579114,0.04422927400680622,0.031009884262304603,0.08187225883631243
523,1456704156602139,0.037830729741829223,0.022761347508550727,0.06684144601573178
524,1456704156626100,0.03410959563597062,0.02118356385760597,0.0585441516424714
525,1456704156639844,0.036813327696221226,0.030345841863724004,0.06397393743527427
526,1456704156661343,0.04889083883966739,0.05219886069293317,0.08876228400533961
527,1456704156686343,0.07088941788037467,0.08544570214140641,0.13481421876168162
528,1456704156699645,0.09990086053159386,0.12513307211042832,0.19815020230651476
529,1456704156721630,0.12973505695078305,0.16334974281345718,0.2682936384038821
530,1456704156745693,0.15261205004257658,0.1911958094700945,0.33034227166755964
531,1456704156759848,0.16192040177220104,0.2016323572485342,0.3695672880661856
532,1456704156781788,0.1548307235255788,0.19221053811897626,0.37669499717539146
533,1456704156805851,0.13342677687549723,0.16646345025781734,0.35130285171644526
534,1456704156819845,0.10384170137865281,0.13316765674381875,0.3018166917840093
535,1456704156841359,0.07409554063076018,0.10361019850664649,0.24264620201599316
536,1456704156865356,0.0518936664269912,0.08792178945845086,0.19026325671617267
537,1456704156879356,0.04317465084079339,0.09185421739181622,0.15964013219260612
538,1456704156901357,0.051327415265003895,0.11498412802400376,0.16129748596724275
539,1456704156926151,0.07659950030558915,0.15072844730586404,0.1986983439413157
540,1456704156939663,0.11554426365371519,0.18817611399651257,0.26630245860277296
541,1456704156962160,0.1609840918994598,0.21541266504739603,0.3494540767479644
542,1456704156984167,0.20321325714254404,0.22346624734787235,0.42727765047363475
543,1456704156999168,0.2326029456908056,0.2094531878846366,0.47850630568356506
544,1456704157021168,0.24270069033339411,0.17750230530492886,0.4883948583715712
545,1456704157044635,0.2322677648564194,0.13688544568775096,0.4538390440763073
546,1456704157059423,0.20519528584097213,0.09814861735893025,0.3843051410180151
547,1456704157081582,0.1685472922393907,0.06909406769863267,0.297985270027052
548,1456704157104390,0.12995242525121645,0.05247021900327896,0.2148909048806102
549,1456704157119637,0.09552437653254886,0.04617787262523371,0.15015438436036307
550,1456704157142102,0.06883167963552483,0.04543593983628385,0.110481173257991
551,1456704157165120,0.05085023433437329,0.04551002902682468,0.0945669816202793
552,1456704157188120,0.04055560909085711,0.04364931172879969,0.09602754560769557
553,1456704157202105,0.035782201456871124,0.03957693785501584,0.10666133701605272
554,1456704157225097,0.03407953026763222,0.03471631472818839,0.11874882501458645
555,1456704157239831,0.03339637154601456,0.030869280054295387,0.1263517307912446
556,1456704157262339,0.03247412453610683,0.029131636034533236,0.1261024430931008
557,1456704157284641,0.030907104670981282,0.029518587235777872,0.11765492825619522
558,1456704157299639,0.028953663873425992,0.031289790031828114,0.1034905725638843
559,1456704157321627,0.02725670784809342,0.03357078348317967,0.0878079728277786
560,1456704157344763,0.02657807339835998,0.035780120562183215,0.07477787160637678
561,1456704157359436,0.02754787169718574,0.03762838592233214,0.0669407397404414
562,1456704157381831,0.030417935504496774,0.03884472223637477,0.06447945576123826
563,1456704157404764,0.03489395982519586,0.03898713572809042,0.06557291833515358
564,1456704157419439,0.04016577632340293,0.03756052887302183,0.0674759609155863
565,1456704157441469,0.04516311294081099,0.03435855120509787,0.06774091157688039
566,1456704157464470,0.048908075229629686,0.029745085516957703,0.0651038111340219
567,1456704157479471,0.05077770754396035,0.024642733178863414,0.05979437082120114
568,1456704157501756,0.05058905004264539,0.020211091274085793,0.053255999861561175
569,1456704157524814,0.04855774016531098,0.017384686295776372,0.047457898518477815
570,1456704157539864,0.04521590571024726,0.016493925481757033,0.04410242067046304
571,1456704157561334,0.04130660641206267,0.017138193750879605,0.04401874592099066
572,1456704157584637,0.03762072313503887,0.01837134177783469,0.04691323753097881
573,1456704157600335,0.034783771488552356,0.01912669044293131,0.05151157920220299
574,1456704157621629,0.033075398965524784,0.018702076168985067,0.05604020254007091
575,1456704157644763,0.03237488900840046,0.01710309303887641,0.05892866834385826
576,1456704157659760,0.03226368137176469,0.015106682451722277,0.05951087133153825
577,1456704157681432,0.032241642302361574,0.014012353695180777,0.058402868438586344
578,1456704157704694,0.03197084161507758,0.015153048091641403,0.05729998470626098
579,1456704157721666,0.03145477975216886,0.019324540204090582,0.05823567680242262
580,1456704157741670,0.03108342726969403,0.02635544283926719,0.06268399177331717
581,1456704157764664,0.031518605275900294,0.03504394687412949,0.07097049037732579
582,1456704157781666,0.0334499352363975,0.043561937886814665,0.08221687059869542
583,1456704157801958,0.03729606254446029,0.050170669494813726,0.09470631905658242
584,1456704157824969,0.042951223179531886,0.05386691956112685,0.10637740740493047
585,1456704157847983,0.04969480102263926,0.054596155274101416,0.1152015318520904
586,1456704157862136,0.056357070031700776,0.05294682700930742,0.11937318032663446
587,1456704157885166,0.06170120857137141,0.04956357002250537,0.11742523523893399
588,1456704157907135,0.06480026344922472,0.04467775306622982,0.10849193072328338
589,1456704157923169,0.06517369718455508,0.038102714897803265,0.0928937259855344
590,1456704157944301,0.0627017355092899,0.029813469594780095,0.07296780751266359
591,1456704157966304,0.05762795910605189,0.020890597313164075,0.05373871564972312
592,1456704157981300,0.05093872586335747,0.014298731548644188,0.04284708172995171
593,1456704158004520,0.045002451891616474,0.014875943108116388,0.049258627436234416
594,1456704158027836,0.04389019874669917,0.028125445190608136,0.08064358009039314
595,1456704158041541,0.05271056089861942,0.05789116924638001,0.13990564392951882
596,1456704158064547,0.07574148524126345,0.10364402517244092,0.22204425730246133
597,1456704158086764,0.11391287329627227,0.1586729308045016,0.31301683463570923
598,1456704158102759,0.16284253867941206,0.21057661535177877,0.3920320064959664
599,1456704158124779,0.21275214058540268,0.24470960637104003,0.4374713799583613
600,1456704158147803,0.2509829995575308,0.24970352191396558,0.43470467184634504
601,1456704158165784,0.26653750210267835,0.2226855156615484,0.38246753059979716
602,1456704158185124,0.254662391602579,0.17153556781140536,0.29460701867618144
603,1456704158207069,0.21912033092275232,0.11289828464274762,0.19626926063672118
604,1456704158221792,0.1710835017855087,0.06678021946066473,0.11641662391054791
605,1456704158245160,0.12549317213246342,0.049979668196371965,0.07974442618768555
606,1456704158267888,0.09662604847628123,0.07066993405530317,0.10026877436267814
607,1456704158283083,0.09420708959728966,0.12566907678697786,0.17756503510338897
608,1456704158305082,0.12073009389265064,0.2010741351598356,0.2961085487613725
609,1456704158326834,0.17045838547912737,0.27626775449733165,0.42823797322053686
610,1456704158342140,0.23064484952914233,0.33048322495742916,0.5409298515911942
611,1456704158364157,0.2851330119558,0.3499470290500232,0.6052482604033941
612,1456704158388157,0.3194270084045112,0.33271497018793045,0.6055470045278262
613,1456704158403159,0.3252171561707253,0.2887518146750464,0.5446338511320382
614,1456704158425160,0.3023445775029407,0.2349433647250412,0.4422993970573039
615,1456704158447183,0.25763492335313926,0.1874786251814179,0.3276130558352528
616,1456704158461183,0.20178733316191572,0.15548806480456534,0.22842093943189504
617,1456704158484397,0.1460555021016133,0.1388905426595143,0.16259654211057226
618,1456704158507452,0.09971368958373569,0.13081966391564992,0.13426910191820784
619,1456704158522519,0.06845471290294065,0.12259808148112063,0.13560923642517217
620,1456704158552122,0.05367721746285258,0.1083860397349929,0.15239268508532436
621,1456704158576148,0.05278155946006001,0.08745536933774072,0.17045201481090722
622,1456704158583148,0.060547865554376856,0.06365965183476538,0.18040314694958484
623,1456704158605144,0.07126587613135683,0.043028962617458685,0.1793207756185429
624,1456704158627923,0.08081516829587573,0.030924678215262416,0.16962949375145958
625,1456704158643216,0.08780503846779471,0.029918006189677774,0.15655051278365836
626,1456704158664219,0.0933351946331031,0.03895354300835082,0.14549954078762564
627,1456704158688219,0.09960538193876009,0.05381896838527222,0.1401507171146046
628,1456704158704220,0.10807054061441965,0.06861334092106593,0.1413227464324407
629,1456704158725221,0.1180287666265842,0.07773940752995182,0.14684988532825508
630,1456704158748367,0.12646846822479021,0.07780901535327431,0.15264961629648188
631,1456704158763369,0.129492458086749,0.06875774341206255,0.15468433341303403
632,1456704158784670,0.12465941046759285,0.05365996116544735,0.15081706488988286
633,1456704158807742,0.11278928885095975,0.037325455397726706,0.14156482632952166
634,1456704158823371,0.09797930564941208,0.024381045232071564,0.12952524366963436
635,1456704158847166,0.08572703828719139,0.017713375412078028,0.11798355420256441
636,1456704158867208,0.08023174212657432,0.017818991492467406,0.10939126248221308
637,1456704158883166,0.08233667881595803,0.02310763249675407,0.1043017966785278
638,1456704158905167,0.08913616776201262,0.030836675555616477,0.10123319689954
639,1456704158927745,0.09540098887146829,0.03820932766538652,0.09763026411643533
640,1456704158943258,0.09607712877291355,0.043213800521451004,0.09147478873769264
641,1456704158964261,0.08857635268182425,0.04495950477316258,0.08255214733127994
642,1456704158987268,0.0737398793282531,0.043520585357065496,0.07254406767796724
643,1456704159003262,0.055155512111159335,0.039531017296436356,0.0639703306703542
644,1456704159025263,0.03739695984650747,0.03385376515833258,0.05878553622470186
645,1456704159047531,0.024177114353800294,0.027497530324275675,0.05749959308726528
646,1456704159069533,0.0172425864986936,0.021684066281051153,0.05915958354682588
647,1456704159084539,0.0163252035678342,0.017809937617751098,0.06198517194446796
648,1456704159107757,0.019917682187183077,0.01713747202138825,0.06422772097121697
649,1456704159129751,0.026294161229592442,0.020290275023130657,0.0648545216632114
650,1456704159144705,0.03418920727699897,0.026812895533391213,0.06379477375591283
651,1456704159167728,0.04286310497418496,0.03507814700400743,0.061690892465889643
652,1456704159189773,0.05171441985456601,0.04269538044684169,0.05933892128742927
653,1456704159204802,0.059867488273900614,0.04732898393650741,0.05715820101865445
654,1456704159228075,0.06609439725864688,0.0475863519230834,0.055004197162177595
655,1456704159249579,0.06912222922894753,0.04355742851428703,0.05242120627367197
656,1456704159272589,0.06811154387213032,0.03676670607810748,0.04913031964351135
657,1456704159287589,0.06305570847546701,0.02959920797864151,0.04537236515760329
658,1456704159309870,0.05494285469070986,0.024470049338421552,0.04183918501886694
659,1456704159324875,0.04558581850747779,0.02304257046963918,0.03925093095450416
660,1456704159347888,0.03711546447465461,0.025733447118252976,0.03789319788324013
661,1456704159369889,0.03132178544685151,0.031644502833079846,0.03742430462145624
662,1456704159385123,0.02914755964214258,0.03892494757199543,0.037056433985810745
663,1456704159407892,0.030519873209613635,0.04540680812560042,0.035981371072985865
664,1456704159429716,0.03447310334718562,0.049262800465202844,0.03378848875954524
665,1456704159444189,0.039423099631427684,0.04947403436481229,0.030659364624018328
666,1456704159467233,0.043531965646830484,0.04600845899004246,0.027273752458047945
667,1456704159489197,0.045173861356969186,0.03971228564903905,0.024512571826784825
668,1456704159504192,0.0434423410822959,0.031991076273164325,0.023108816110125004
669,1456704159527738,0.03851535120051602,0.024416487668811684,0.023381345351173373
670,1456704159551248,0.03168843743390854,0.018403993100026318,0.025141655377142694
671,1456704159564211,0.025022746329869845,0.015031135527245911,0.027805063071085916
672,1456704159587457,0.020706477762093677,0.014950406008970416,0.03064866769258703
673,1456704159609410,0.020316817507748927,0.018294728821529785,0.03307401621071275
674,1456704159626249,0.024211356335595683,0.024528887312790848,0.03473377699082853
675,1456704159647448,0.03128009591829418,0.03232448884593881,0.03548065729475505
676,1456704159677621,0.039211657901382486,0.03962450898128416,0.03520986866863417
677,1456704159686587,0.04524607962284533,0.044026400943875395,0.0337233489474203
678,1456704159707691,0.04714934929478928,0.043456188016114304,0.03073336232516595
679,1456704159729632,0.043992394447661023,0.036926569593386756,0.02604127149618256
680,1456704159746139,0.03640511144463265,0.025064696408991897,0.019791768807640785
681,1456704159767383,0.02627780727793016,0.01011545984056144,0.012608318719855812
