,timestamp,x,y,z,w
0,1456704146116973,0.057314356597270084,0.008812020176849967,0.0722749709299583,0.10789070686601968
1,1456704146138479,0.08359755494163248,0.008356413784452421,0.06244996785924082,0.11905781907179547
2,1456704146162481,0.10718667179945685,0.008554154320057654,0.05264383104703287,0.1260923819730306
3,1456704146177482,0.12549321543002387,0.009907462122581789,0.043154709185077814,0.12579238994367298
4,1456704146198488,0.136326229612498,0.012611688055148179,0.03464176631317921,0.11659543908132766
5,1456704146222999,0.13838814880082637,0.016458435151077287,0.02802064850940053,0.09920518737909959
6,1456704146268507,0.13181889034940564,0.020830468024087428,0.02423489386552963,0.07679589938130776
7,1456704146277508,0.11849185189479594,0.02482611775943179,0.024044265842293525,0.05456577032902712
8,1456704146285508,0.10177023522513753,0.027512922525695163,0.027910779325824808,0.03855273569012107
9,1456704146300511,0.08564889694724659,0.02824343064005317,0.0359557064835778,0.033902935210249195
10,1456704146321224,0.07353401561452444,0.026909639411675037,0.04790712160611756,0.04308180624181945
11,1456704146342727,0.06713261675291418,0.024014641123627247,0.06299955233117008,0.06468166129753035
12,1456704146387010,0.06590358216998714,0.02051622330903852,0.07988108808363012,0.09340250434824844
13,1456704146387724,0.06731578590942036,0.01750967233356125,0.09665030640362275,0.12144346919632201
14,1456704146402044,0.0678759763716129,0.01589336812175052,0.1111268519403789,0.14099612611775594
15,1456704146418016,0.0645891053396811,0.01614736719052033,0.12133904500425786,0.14697313126734082
16,1456704146440527,0.05630241797319614,0.018267470308280454,0.1260397208683782,0.13885819700512744
17,1456704146461534,0.04441225059625264,0.02181058228843143,0.12497200939191128,0.12084740508648008
18,1456704146477544,0.032683035902401014,0.025990087806899844,0.11874000737466103,0.10017576014585268
19,1456704146508538,0.026266287915400182,0.02981061108289604,0.10845527473846402,0.08432573433033817
20,1456704146522353,0.030245391042321823,0.032275668359529774,0.09554184559871746,0.07827983889478925
21,1456704146537556,0.048110973288810636,0.0326710305163381,0.08192101308432728,0.08287565297169834
22,1456704146560559,0.08052254630222444,0.03084200774217567,0.07035859240983715,0.09477096742129347
23,1456704146582559,0.12462938822568453,0.027331663125135994,0.06444991723673864,0.10789608767330966
24,1456704146605561,0.1741720571465657,0.02328349704855009,0.06784665932158553,0.11582400698847549
25,1456704146621598,0.2205025643110996,0.020114015029350403,0.0828337444282599,0.11424120400623917
26,1456704146641864,0.25444904900868726,0.019067969223329623,0.10890973745722674,0.10263761979116581
27,1456704146664867,0.26865493690434356,0.020829683100835515,0.14222801270211918,0.08456296834962296
28,1456704146680865,0.25980344555985024,0.02534442574529582,0.1764172535894992,0.06635997763953806
29,1456704146701875,0.23008738459211,0.0319012699795896,0.2045785718754571,0.05495913463499022
30,1456704146725402,0.1873790410649954,0.03939795990224717,0.22160584623652,0.05572862609155301
31,1456704146741165,0.14379745247833176,0.046642312460128094,0.225798339594745,0.07126682208155695
32,1456704146770094,0.11282635749871152,0.05258456305582745,0.2191012926795257,0.10144108528772663
33,1456704146787124,0.1057332223842033,0.056459630668903395,0.20597263693937617,0.14425224106914167
34,1456704146800893,0.1284343582782619,0.05785998589980065,0.19146663418305024,0.1967195146336924
35,1456704146822357,0.1798097656936007,0.0567483275300575,0.17937479224616895,0.25519935521903797
36,1456704146845318,0.2518773114537063,0.05341269962961419,0.1711079954537424,0.3151410975093214
37,1456704146860318,0.33161339860405087,0.048393013387053714,0.16559541305943262,0.3707519379943329
38,1456704146882454,0.4038548245164601,0.042426194417901485,0.16007804947646362,0.41513624653409614
39,1456704146905454,0.4546111689845609,0.036429142011369674,0.15146017533557687,0.4412568287002174
40,1456704146921272,0.4741282726860827,0.03148870789562592,0.13781168329012625,0.44367432021362907
41,1456704146942526,0.45911848847753267,0.028804048556884974,0.11956393074648648,0.4205781993231975
42,1456704146973311,0.41371423668147894,0.029546776144573926,0.09992524708810244,0.3753227534613212
43,1456704146981311,0.3489128742357654,0.03465889519427405,0.0842250607465045,0.31672841872080004
44,1456704147004448,0.28055295801269003,0.04466178386460947,0.07834586695920337,0.25782868264855013
45,1456704147025263,0.2261297373746012,0.059536504263746653,0.0868935012558962,0.21330399847639211
46,1456704147041427,0.20094719790917673,0.07864388427549128,0.11190561137487005,0.1962482649715928
47,1456704147063163,0.21427281661196773,0.10059850051053376,0.15253628636727595,0.2150594851400622
48,1456704147086506,0.26641169957242883,0.1231188855229144,0.20553968418273086,0.2711966460721758
49,1456704147101164,0.3477848360811834,0.14307239077057063,0.26599411936463774,0.3583299185142831
50,1456704147123179,0.44080171245962335,0.15698125821394096,0.3278212905709145,0.4630820833526232
51,1456704147145191,0.5244491032045185,0.1620445209207931,0.38408349499541133,0.5672631143514693
52,1456704147161189,0.5804182054715162,0.15739563744228421,0.42740739725809185,0.6512923986262241
53,1456704147190214,0.598739886652261,0.14506054318090889,0.45093546935165374,0.698275270230081
54,1456704147205192,0.580677410074196,0.13002249750662065,0.4499082031325565,0.6979010683915596
55,1456704147221197,0.5373444177389554,0.11902214184179273,0.42347083023184173,0.6490971496503593
56,1456704147243203,0.48423439349827657,0.11825867588601179,0.3758588969367325,0.5604350219098999
57,1456704147265205,0.43400913705869115,0.13082379740059497,0.316082033476404,0.4478254399267135
58,1456704147281206,0.39124999873179195,0.15505634899372625,0.2557835392763734,0.3300638740453755
59,1456704147305207,0.35212712653961936,0.18469838569477556,0.20592106507008212,0.2238808893977475
60,1456704147324224,0.30900728264116906,0.21088502718129815,0.1736982561280242,0.14047409956847245
61,1456704147341408,0.2567972929553008,0.22514029409751823,0.16112782962463407,0.0845571894603851
62,1456704147363236,0.19688606706926542,0.2221501786899859,0.16563612085363202,0.05545841455547121
63,1456704147386414,0.13660707391447008,0.2012741472415225,0.1819669401786799,0.04904036899221923
64,1456704147408238,0.08529856025625313,0.16637984675491937,0.20421336466840218,0.05956625290312783
65,1456704147423247,0.049835380438266734,0.12430800554400256,0.22722750743174502,0.08128585402676418
66,1456704147445264,0.03212467891426426,0.08273665952246574,0.2472933046356447,0.10968984748947001
67,1456704147467265,0.029407404797125294,0.048251560911121816,0.26224389379631924,0.14217246477814235
68,1456704147484266,0.03658851099375485,0.025137338378769653,0.271176924196069,0.17778857141671295
69,1456704147505271,0.04897546588903018,0.015003396864771033,0.2738774324219352,0.21616637158612897
70,1456704147528973,0.06391391870401215,0.017056441678118543,0.270168078076636,0.25617494151487663
71,1456704147542943,0.08067904915734528,0.028729598516346818,0.2595446541391269,0.295126266420372
72,1456704147565677,0.0990779663141299,0.046435307865178146,0.24136856482044614,0.3289085780356521
73,1456704147588680,0.11788803394140705,0.0663071804475141,0.21552443584597752,0.35284404218923754
74,1456704147603681,0.13418563438327977,0.08485337860130175,0.18308938906979544,0.36275085965613
75,1456704147626189,0.14400765631505064,0.09945535864840242,0.14654403513341255,0.3558332745647354
76,1456704147648697,0.1440577246183127,0.10864600614394396,0.10940750309871788,0.33136018841955667
77,1456704147663699,0.13365212887661704,0.11212637567783944,0.07556477419281145,0.2912527519550617
78,1456704147685700,0.11594000053194477,0.11053789913776507,0.04863768839359303,0.24052910599778143
79,1456704147708701,0.09764239164888806,0.10506796880075989,0.03153763346198222,0.1872246174595958
80,1456704147724215,0.0871042127092881,0.09700422405668448,0.026121643023803372,0.1413004469984518
81,1456704147752723,0.09123061352771043,0.08737071902602829,0.03287493659817633,0.11243600109840757
82,1456704147768724,0.11256773566699967,0.07677216417847292,0.05069830322555057,0.10731394193423073
83,1456704147783724,0.14792949626375346,0.06550299808185678,0.0769816180106085,0.12753693291013946
84,1456704147805725,0.1893204907904443,0.0538477420366044,0.1080813633429394,0.16919745027108546
85,1456704147830931,0.22673395833965845,0.04239269091939978,0.14012613982695662,0.2243002430419146
86,1456704147844136,0.25143971469347903,0.03216823940537955,0.16985606192811242,0.28318723677283436
87,1456704147866145,0.2583036462486605,0.024537811165335457,0.1950943713886743,0.3366222313745306
88,1456704147889134,0.24652819956508262,0.020879023679029947,0.21459188535941354,0.3767176227712725
89,1456704147904135,0.21923425741316283,0.022205363435686323,0.22737786451948303,0.39700940982972793
90,1456704147926176,0.18266906120529103,0.028898156456794322,0.23213794098462254,0.39271065926573745
91,1456704147949192,0.14537960115574133,0.040631195565036256,0.22719627623242034,0.3618836851279681
92,1456704147970495,0.11708153022475946,0.05643147612719099,0.21133434104493654,0.30727900138020375
93,1456704147986193,0.10688151403758397,0.07474896012124813,0.185147620190525,0.23771277380172864
94,1456704148009195,0.12102370695661355,0.09347272519902122,0.15221218565907346,0.16768621532090996
95,1456704148030213,0.1608679929288364,0.1099771173151,0.11923170123477922,0.1145743614263031
96,1456704148046221,0.22186518993827894,0.12138137511251096,0.09468539093660852,0.09383645932808785
97,1456704148069223,0.2939408882114163,0.12515064798390332,0.08621448811223481,0.11381231743721261
98,1456704148090224,0.36335518269244155,0.11995334004646588,0.0977011583364978,0.1721839533186556
99,1456704148106225,0.41591316267103845,0.10645338179721217,0.12726842430825802,0.25574690676137446
100,1456704148129252,0.44108328745590203,0.08763850771699548,0.16712856452240687,0.3439025156598998
101,1456704148150260,0.4359707455040604,0.06843774883789186,0.20556325646824408,0.41482999849590735
102,1456704148166261,0.40753923448704626,0.05465460335186432,0.23059908370207902,0.4522640037221201
103,1456704148188262,0.3715666629575439,0.05146478794851673,0.23427018336274663,0.4505635384486906
104,1456704148209263,0.347836241877179,0.06184147196385649,0.21589517851515405,0.41631556570564876
105,1456704148225814,0.3527481405249133,0.08534280275023823,0.1828525916965365,0.36582194239112154
106,1456704148249375,0.3921911465519214,0.11773347302345055,0.1481568739973945,0.3191803011335581
107,1456704148270390,0.458139154416266,0.1517788635599326,0.12553028804358468,0.2929831481457141
108,1456704148286388,0.5311682263038499,0.17916477653444274,0.12395470328625416,0.29443251665522
109,1456704148309392,0.5881570546805186,0.193009940637391,0.14408717084218697,0.31929972934385215
110,1456704148330028,0.6115796567046816,0.19011890372138615,0.1781272530812586,0.3545180007075437
111,1456704148345544,0.595970284829396,0.17212934180945186,0.2131440915811038,0.3840425831110905
112,1456704148368500,0.5487367227659825,0.14503975803827707,0.23632750185948248,0.3951689476281997
113,1456704148389710,0.4853627540646828,0.11716554709098155,0.23984717646973736,0.38252902380850945
114,1456704148405501,0.4217072231667527,0.09620828623576547,0.2233110483336171,0.3483788580950999
115,1456704148429716,0.3674398846564456,0.08658321961099139,0.19303158663206796,0.29979590648339044
116,1456704148452430,0.3238820998662927,0.088118754191937,0.15881434079091664,0.2449456100582253
117,1456704148466431,0.2867580977229613,0.09661488088480653,0.12998521234297722,0.1906346144512448
118,1456704148489432,0.2512527087667348,0.10586441249423237,0.11237924675765466,0.14185098431499998
119,1456704148512435,0.21565593694381036,0.1101430929129118,0.10717743079720822,0.10227447597581803
120,1456704148525949,0.18159048285802554,0.1061359013528491,0.11147557443348521,0.07441524734956216
121,1456704148548459,0.15170458579800006,0.09368039037684125,0.11991851433118356,0.05907400882330384
122,1456704148571458,0.1272872337708123,0.07529403825923742,0.12670244477961445,0.05479966246667378
123,1456704148585459,0.1075985804411079,0.05492434917337994,0.1273952873165678,0.05804979440935274
124,1456704148608492,0.09092293037905357,0.03652587171249905,0.12011865175417828,0.06417996091470007
125,1456704148631978,0.07613113940513196,0.022939218019726124,0.1057713417247508,0.06888434505677576
126,1456704148645484,0.06356089365460564,0.015307298121142012,0.08729561301537442,0.06950990136616446
127,1456704148668486,0.05476713323111223,0.013071598224667302,0.06837984895458186,0.06568562850724992
128,1456704148691487,0.05140440711801138,0.014461762082377332,0.05218472877066453,0.058953499423015795
129,1456704148705488,0.05389972818024851,0.017281622406741724,0.04056156189237576,0.05158263495905397
130,1456704148729207,0.06066884774505176,0.019711467994946268,0.03392640641975601,0.04523982109267937
131,1456704148751464,0.06837730704018753,0.02084109978788515,0.031648094718775346,0.040273208639351535
132,1456704148766429,0.07318504478728484,0.02075700911816253,0.03262830649634848,0.035943023803926215
133,1456704148788461,0.07234397116091408,0.02020552752469788,0.03576250378836538,0.03132550462947117
134,1456704148812432,0.0653242819829216,0.020045704119321633,0.04014681145129405,0.02624476415670386
135,1456704148826373,0.05394875267050591,0.020779312687104326,0.04509793316096027,0.021653469706889913
136,1456704148848638,0.04157483029019037,0.022364330742098877,0.05012836598403367,0.01928198920869181
137,1456704148871639,0.0317962907062005,0.024343864687065047,0.05494644077927181,0.020807818851305667
138,1456704148885639,0.027225956619010925,0.026159076359130097,0.05944456611754227,0.02700435166685887
139,1456704148908640,0.028745593476440685,0.027446239756027505,0.06361412360088468,0.03725998430295568
140,1456704148932149,0.03536785326042714,0.028167459221712213,0.06738925509173341,0.04963216638489121
141,1456704148953156,0.0446620559326731,0.02854135404931308,0.07049591191692271,0.06136630796429994
142,1456704148969157,0.053566129586481444,0.028841117963471174,0.07239754276734844,0.06966808149921642
143,1456704148992350,0.0593338572765125,0.02916991803559839,0.07238518959544282,0.07248802127554495
144,1456704149013161,0.06033471749789703,0.029324676048057864,0.06980334295311656,0.06910506959377545
145,1456704149028963,0.056437752756945195,0.028836003032284896,0.06435818317099759,0.06033738760106679
146,1456704149051270,0.04883403244799858,0.027202395425210333,0.05640809903851817,0.04829386357806754
147,1456704149073271,0.03941068203374086,0.024217714724370953,0.047091768243850314,0.035741445469234086
148,1456704149088454,0.030036131680142623,0.02020224362924645,0.038167633662743145,0.025333504650462225
149,1456704149112273,0.022125999049668266,0.01598857649962012,0.0315711068307806,0.01899469217149244
150,1456704149133802,0.016606474564444553,0.012669949877109513,0.028875970763059828,0.0176505890223232
151,1456704149148803,0.01411616871439803,0.011257378190971345,0.030919457747060338,0.02131801167954842
152,1456704149170804,0.015211791672779286,0.012410337305725345,0.03774350376042467,0.02943747179890213
153,1456704149192804,0.020442410493678807,0.016325805509757905,0.04880949387064091,0.04126324159302841
154,1456704149208806,0.030266460877970084,0.022774845505421828,0.06330426252645033,0.05612327062516615
155,1456704149230820,0.04482481275383572,0.03121678443339435,0.08033848473801478,0.07342253674484811
156,1456704149252330,0.06359658987828547,0.040909511656341796,0.0989292624952309,0.092381223639598
157,1456704149268332,0.08502161364996234,0.05096603956305552,0.11780290595311775,0.11163698187683913
158,1456704149290333,0.10628300553824534,0.060368492027937815,0.13518300019146529,0.12894694336417148
159,1456704149312334,0.12352967091344448,0.06801157363826181,0.14878146860697095,0.14125498998997205
160,1456704149328990,0.1327662932796431,0.07286892673761879,0.15616218864846113,0.14531709763650197
161,1456704149350546,0.1313886724932536,0.07433029960234011,0.15551253747660587,0.13889719035809298
162,1456704149373547,0.11995427781443259,0.07264972659819029,0.146663632032851,0.12227067174207085
163,1456704149388548,0.1034147147486739,0.06931491379640442,0.13198369967170562,0.09945724887500289
164,1456704149410551,0.09090628855239753,0.0670628900723239,0.11662750741260108,0.07839710404669654
165,1456704149433562,0.0934920681023228,0.06930558054581272,0.10770509016421687,0.06941908589860168
166,1456704149448569,0.12006445991198582,0.07894632247494886,0.11232013729423176,0.08198875119459348
167,1456704149470570,0.17276218665748183,0.09693045493491603,0.13500940958366994,0.1207131318937793
168,1456704149493571,0.24413511778776836,0.1211980925981265,0.1755639896104392,0.18236452301728368
169,1456704149508572,0.3181211023726112,0.14671962616527204,0.22820555429969386,0.25562915196525116
170,1456704149531045,0.3753225856219836,0.16685835221694922,0.2826076195678302,0.3242099190167542
171,1456704149553510,0.40070955962764565,0.1756329309571006,0.32659392195066644,0.3723264145047006
172,1456704149568511,0.39016380473571466,0.16997307394820904,0.349789781639019,0.39041274737046056
173,1456704149592513,0.3524638866862587,0.15104202098177402,0.3471147036042528,0.3785613716238031
174,1456704149613514,0.30544887543605315,0.12408100176720743,0.32085464296696065,0.3461416124843506
175,1456704149628929,0.26800873296182054,0.09679003424717242,0.2803318796503223,0.3076558117334868
176,1456704149650417,0.2516646679880259,0.07679176132854607,0.23898229911746563,0.27656770718777673
177,1456704149673419,0.25578129396456667,0.06907963287132614,0.20972249618405203,0.25983301931235026
178,1456704149688419,0.26873490540956674,0.0743982910970904,0.20036200001314658,0.2557004607894489
179,1456704149712421,0.27436996325368834,0.08916835625577468,0.21097001416185743,0.25586431929648723
180,1456704149733429,0.260306445771651,0.1069413127196196,0.23429329917447128,0.2507174263166265
181,1456704149748434,0.22377930831863488,0.1207402662007913,0.2588867970529535,0.23465041001045372
182,1456704149770435,0.17231513690202238,0.1253341398449382,0.2734114079442086,0.20846239267768948
183,1456704149793436,0.11956596819794214,0.11864015418509709,0.27027982526172917,0.17795524977460603
184,1456704149808437,0.07901472833763944,0.10191160847331009,0.24748151594321882,0.15012988292199106
185,1456704149838865,0.05874587955542203,0.07886686172100023,0.2084022845132701,0.12949204802062297
186,1456704149853866,0.059252923815485095,0.05424408602684908,0.1601840310650646,0.11639222918823747
187,1456704149868866,0.0744769751032411,0.03236261321259766,0.11142878399810469,0.10780187902897602
188,1456704149890868,0.09496895999501159,0.01615279822580265,0.06995510669283832,0.0995746441260783
189,1456704149913870,0.11163358835048477,0.006844646056939818,0.04109400971713452,0.08877388214075135
190,1456704149934959,0.11876438480936828,0.004210123711025232,0.026812789955274332,0.07503581287099263
191,1456704149950954,0.11559001431313834,0.007080710544877311,0.02578035932494902,0.06063753820400483
192,1456704149974956,0.10603112591936144,0.0138650771052494,0.03427519509160935,0.049478398406958904
193,1456704149995257,0.09681620507816925,0.022912414867853143,0.04759496472725427,0.045468085310711795
194,1456704150010956,0.09461251640530711,0.032702606732445946,0.061468475295082196,0.050940297571757887
195,1456704150033966,0.10326896248316285,0.0419226806611121,0.07301395613043912,0.06568733287957473
196,1456704150055305,0.12230585941993244,0.049499933009450985,0.08103010908769027,0.08697401604290242
197,1456704150070975,0.14723076637019233,0.05463924701493416,0.08570342707568096,0.11047159752517412
198,1456704150093976,0.17137962459876332,0.056879030643255994,0.0879924081171671,0.13165101999738582
199,1456704150114978,0.18833733686064796,0.05614067289245962,0.08895375212230976,0.14702264743284496
200,1456704150131021,0.19391645501408847,0.05272301242887214,0.08920121610987156,0.15477653256910925
201,1456704150154249,0.18706146564319498,0.047216985876508945,0.08862974338612166,0.1547235071903728
202,1456704150175247,0.16959107591659459,0.04036958792048075,0.08648307381097715,0.1477561985522295
203,1456704150191250,0.14513741743796532,0.03295511537309348,0.08174462889457683,0.13520922194366716
204,1456704150214242,0.11784934146143329,0.025692145880217267,0.07370875711140934,0.11846141528015801
205,1456704150234401,0.09137332949614353,0.019206255416616233,0.06250691999023628,0.09892490057237135
206,1456704150251409,0.06839262191706375,0.014017062128684593,0.04936369846105024,0.07831342586983493
207,1456704150274408,0.05071775413233164,0.010531733684565942,0.03645035369257005,0.05891707205025972
208,1456704150295409,0.03968443300807382,0.009041395902345841,0.02637103491068703,0.043615693089523525
209,1456704150311410,0.03651460118214175,0.009724635250925519,0.021490701129018686,0.03551600334643705
210,1456704150334138,0.042389541467116126,0.01265725678013547,0.02338514666250972,0.03730416145442441
211,1456704150357147,0.05820270001491318,0.017816072445326965,0.03259892124005142,0.05055587453307852
212,1456704150371148,0.08412183024988991,0.02505628511421861,0.04869851788978832,0.07525009456398894
213,1456704150394149,0.11910297843452994,0.03404553076811253,0.07045046274659611,0.10959582037544328
214,1456704150417150,0.16046915570123693,0.04416158924241825,0.09594128726309915,0.15013156267327782
215,1456704150431162,0.20372004313661193,0.0544037043163084,0.12258397750968164,0.19202643260333904
216,1456704150453456,0.24283708229830459,0.06340631314211496,0.14713293499824512,0.2296036700665468
217,1456704150476456,0.27133856323016065,0.0696453932615001,0.16594251683449449,0.2572046785126402
218,1456704150491457,0.28411365142314005,0.07187183312582646,0.17566833247891442,0.27048266072555055
219,1456704150520044,0.2796454994862256,0.06969813228446373,0.174405461849751,0.267993206634684
220,1456704150536534,0.2617782862129214,0.06413398188999948,0.1629457334725828,0.2525838420474002
221,1456704150550535,0.23995191550239603,0.057771522685808055,0.14555967581526782,0.2317832900519813
222,1456704150574536,0.22710726022477004,0.0543436812129794,0.1296523946479713,0.21646120962266485
223,1456704150596538,0.23537621667418523,0.05758029324066035,0.12394882025370743,0.21764934839760536
224,1456704150610538,0.270949944721437,0.06964095899017982,0.13552145005523014,0.24240748054600303
225,1456704150634049,0.330474233633468,0.08975469687969971,0.16672269473891904,0.2904482102052488
226,1456704150656556,0.40113367351010487,0.11380733049541869,0.21345197248803482,0.3532755553787825
227,1456704150671556,0.464962681368217,0.13532940316724848,0.2658006337642031,0.41657701645628553
228,1456704150693558,0.5056622785473122,0.1477188787396881,0.31108273259859387,0.46502442631193225
229,1456704150716560,0.5147965365950421,0.14687637669657186,0.3381456484205944,0.48748098376786164
230,1456704150738578,0.49456279619160415,0.13309815448312143,0.3412582272566124,0.48051792362483264
231,1456704150753579,0.45597140830445165,0.11128507150629793,0.32204767135363616,0.448933782902391
232,1456704150776580,0.41328386763956276,0.0892243864764892,0.2887480369914418,0.403116458163409
233,1456704150798581,0.37725646406826224,0.07457307392045612,0.25305113193607626,0.3542936624522153
234,1456704150813583,0.3505365821160189,0.07180719264890953,0.2257459384229083,0.30978388351699243
235,1456704150836660,0.3277214948152882,0.08047273163635321,0.21284257810704704,0.27072617896867524
236,1456704150857697,0.30000044930580244,0.09550322175865658,0.21378787812214423,0.23367764432889618
237,1456704150873728,0.2614286213481503,0.10942283357006716,0.2225286534628893,0.19506145375821146
238,1456704150896663,0.21296749845721732,0.11540684463067363,0.23077102753544612,0.15538713855544764
239,1456704150917663,0.16222617815343576,0.10983925462103651,0.23163069595061594,0.12030068414889228
240,1456704150933705,0.11972563030124428,0.09333497155572877,0.2218592335881101,0.09784088818777735
241,1456704150956676,0.09420048730242074,0.0699903476669022,0.20197240379282563,0.09383969571859649
242,1456704150977678,0.08919717633152376,0.04545040961887244,0.17491777572311526,0.1083377430143063
243,1456704150993878,0.10197898513822966,0.024795988149992988,0.14443976067721323,0.13491578863163275
244,1456704151016898,0.12467828616913394,0.011104916524512032,0.11394491212462853,0.16301132106307153
245,1456704151038890,0.14706122492225268,0.005032206077327655,0.08603384756203489,0.18183501376750638
246,1456704151054103,0.15993934468439108,0.005250531089000458,0.06248025964613791,0.18406889581586375
247,1456704151077105,0.1580780320671449,0.009341856866541159,0.04438691281265917,0.1680105282961441
248,1456704151097912,0.1416043039120099,0.014739539119288481,0.0323463363822149,0.13768294116269775
249,1456704151113894,0.11549687640882189,0.019452787265348277,0.026531977657028777,0.10117478121623517
250,1456704151136194,0.08749869250900721,0.022447719976856278,0.026719204827105127,0.06793218866933436
251,1456704151158319,0.06533551591312368,0.023671608815126387,0.03228373709531346,0.045907048092193724
252,1456704151174316,0.054249694357076265,0.023787153377573072,0.042219946080176984,0.03940777287934193
253,1456704151195312,0.05561916552996458,0.023735776688116765,0.05517367824834983,0.04822465588084176
254,1456704151218199,0.06698504579565592,0.024277884184947734,0.06946869928437589,0.06817065111232368
255,1456704151234402,0.0833096835658836,0.02566155160997448,0.0831621349801,0.09271618806563726
256,1456704151256374,0.09889424244611951,0.027532908503972418,0.09422182705558349,0.11508641365070885
257,1456704151278385,0.10924354613703662,0.029112226294453415,0.10088026855947796,0.1301502823236044
258,1456704151293385,0.11228775434538851,0.02954830441231401,0.10208826771711339,0.13560361498624482
259,1456704151315402,0.10863901094413037,0.028288477314216045,0.0978675628464902,0.13218418518069622
260,1456704151338386,0.10087820684136291,0.02530432019787578,0.08934706509425057,0.12290373715425344
261,1456704151353324,0.09219899051609376,0.0210899388302903,0.0783959552631033,0.1115768382275061
262,1456704151375380,0.08499534168605169,0.016458400266924317,0.06698322159666137,0.101218689464991
263,1456704151398328,0.07999828838411778,0.012247118557403994,0.056562318393462756,0.09298419163334964
264,1456704151414328,0.07628123269461164,0.00906505695855106,0.047770298814411576,0.08608410983113791
265,1456704151436347,0.07201986543626215,0.0071718511429764605,0.040542078969750345,0.0786281652065032
266,1456704151459181,0.06556385433945425,0.006505960830554622,0.034512461405317774,0.06889243561417144
267,1456704151473379,0.05630401612648876,0.006816793737997066,0.029457429857736507,0.05635672313448813
268,1456704151495377,0.0449954457795699,0.007825829662059214,0.0255546344139076,0.04207048366178102
269,1456704151518377,0.0335024517728656,0.009347245631595221,0.02337273188828348,0.02831338822093134
270,1456704151534349,0.024191865634269675,0.011333418219442412,0.02365113218349126,0.017851365068754437
271,1456704151555711,0.019297384014194265,0.013855616945519943,0.02703015467840833,0.013186785545127899
272,1456704151578712,0.02050804109699569,0.017055843570864104,0.03388707644504785,0.016084144856452754
273,1456704151593712,0.0288677019842538,0.021097643025836138,0.04433187655078604,0.027442121587857728
274,1456704151615988,0.04488298121813656,0.026116219001255086,0.05828701431053952,0.04739128331621612
275,1456704151639657,0.06860348968548981,0.03214785733110129,0.07550762297991888,0.07539649194807381
276,1456704151653658,0.09944445448502531,0.03902364886341471,0.09543707929403349,0.1101726609296509
277,1456704151675888,0.13569866148541995,0.04624626363612722,0.1169150782934294,0.14937615129183512
278,1456704151698661,0.17396103941492755,0.052916326877428234,0.13789531847989497,0.18924920306781373
279,1456704151713663,0.2089151607945254,0.057804262582151884,0.15541450864680995,0.22456360205025447
280,1456704151735546,0.23395807644761632,0.05964012730505145,0.16602728118762297,0.2492231741184805
281,1456704151749596,0.24289051705987652,0.05760650432924327,0.1667622865098768,0.2576872198596723
282,1456704151771842,0.23240269831796412,0.05189460574824216,0.15639846165369287,0.24700072329409808
283,1456704151795557,0.204505049787086,0.044082114779678654,0.1366086125187623,0.2187859111005064
284,1456704151809564,0.16767888621879337,0.03708078414567246,0.11241067196319916,0.18026435681925604
285,1456704151832069,0.13566970938543846,0.03451743115610313,0.09150629283304783,0.14346547897021372
286,1456704151854582,0.1236619322568863,0.039629705985514505,0.08245772136972906,0.12235644120344387
287,1456704151869620,0.1428448364901554,0.05399932330818038,0.09212843984636689,0.12855049406252161
288,1456704151891586,0.19550137933228057,0.07660381594668451,0.12319498197714598,0.16707389659296965
289,1456704151915844,0.2729938220205119,0.10364476595395727,0.17262512065433533,0.23390073153873506
290,1456704151929806,0.358004573917398,0.1293684607169723,0.23174118764972676,0.3164021197701029
291,1456704151951747,0.4304634594051187,0.14771060533149155,0.2880075682275263,0.3967498269845824
292,1456704151974534,0.47476007079549026,0.15424327515543884,0.3282142057968895,0.4571831156187962
293,1456704151989606,0.4851638094256948,0.1477415526202747,0.34231079288663585,0.48536098533564254
294,1456704152011751,0.46720739098871733,0.13077399623840538,0.32676964373975714,0.47798619146403576
295,1456704152034973,0.43456807156595695,0.10901609142559465,0.28621919699854975,0.441446889610643
296,1456704152050295,0.40279319085552023,0.08942229832488773,0.23247582283064017,0.38918503831457485
297,1456704152072268,0.382457973140358,0.07786417096994856,0.18101208054679827,0.3366407028054901
298,1456704152095284,0.3747255383366267,0.07713868843817104,0.14597290487852566,0.29566129623481346
299,1456704152110355,0.3714778507774571,0.08613997975991212,0.13558170906945746,0.2707498550465687
300,1456704152132067,0.36008604095813845,0.10046590405740702,0.14975036476295572,0.25887829981648564
301,1456704152154875,0.33036012342348964,0.11410816300417059,0.18079437221301445,0.2527458385334997
302,1456704152169627,0.27995858860055156,0.12150538839498974,0.21673743164860032,0.2453819547858304
303,1456704152191802,0.21555069740705696,0.11923409933797918,0.24557977266756836,0.23339536841587163
304,1456704152214802,0.14956177652046987,0.10685579384024778,0.25875753800342405,0.21739144531666174
305,1456704152229882,0.0946295012552566,0.08677017275920264,0.2527748381058265,0.2000384982891115
306,1456704152252351,0.058676353598201204,0.06323982928051837,0.22900295063383524,0.1835100456524875
307,1456704152275179,0.04268503793926082,0.0409841961359284,0.19230584316492957,0.1679646205813475
308,1456704152290181,0.04164211461928218,0.023832450770172316,0.14928491014407308,0.1517369444423421
309,1456704152312347,0.047638052970872105,0.01384510142808193,0.1067051706288834,0.13279677265524856
310,1456704152334928,0.0534035759163765,0.011098537676667115,0.07033503362652262,0.11041000875566331
311,1456704152349438,0.05476289819139295,0.014076557774891186,0.044199791017168984,0.08601483912028665
312,1456704152371442,0.05129070652126565,0.02042939057470773,0.030188612290966085,0.06290229037906064
313,1456704152394649,0.04535894564988107,0.02779188719954574,0.028008105794891342,0.044959846426590844
314,1456704152409699,0.040351933969874236,0.034394020125602415,0.03551022034799081,0.03515638277424024
315,1456704152432330,0.03897196560938514,0.03931737135816892,0.0493550625295417,0.03448641114935564
316,1456704152455165,0.04230113528206483,0.04240273809869043,0.06584496432988234,0.041801741926900934
317,1456704152470166,0.04979825131920688,0.04393810231186533,0.08169824209881718,0.054499591549060054
318,1456704152492315,0.05994812561818146,0.044307718578913836,0.09457617139332893,0.06963668065680584
319,1456704152515168,0.0710680951191262,0.043752275098964226,0.10328942906958334,0.08490041773121308
320,1456704152529963,0.08186189334915069,0.04230483707034026,0.10770900000113239,0.09903605956206858
321,1456704152551836,0.09156199077223554,0.039876304345609764,0.10845752612325597,0.11166665745243708
322,1456704152575198,0.09973803137882267,0.036409969603444,0.10648466312664961,0.12274147132282721
323,1456704152590134,0.10597164007284086,0.032020670958555784,0.1026552073312246,0.13196599080496857
324,1456704152613843,0.10960790640806761,0.027063352923952354,0.09747914614304595,0.13849388491528267
325,1456704152635146,0.10972987721601163,0.022111641724317878,0.09106135016535719,0.14099053469136985
326,1456704152650140,0.10539881452739808,0.01785256754301251,0.08326215237554156,0.13801904811705168
327,1456704152672141,0.09609203693882618,0.014921685239524796,0.07398302274440118,0.12860621129719058
328,1456704152695143,0.08217651702310824,0.013724885020792254,0.06345351456360565,0.11280274369273062
329,1456704152710144,0.06519964628991455,0.014313812035643724,0.05240170065014692,0.09203524027244075
330,1456704152732163,0.047802271719908127,0.01637640038706488,0.04203490418697935,0.06907900476799421
331,1456704152754973,0.033207301322050055,0.01936029353261258,0.03383116074420399,0.04760292776320983
332,1456704152769965,0.024461801494187616,0.022685840561346322,0.029225324526916896,0.031424911016472594
333,1456704152792254,0.023759369020452892,0.0259610553215105,0.0293300129720109,0.023759194950773808
334,1456704152815233,0.032121983964410857,0.02910304224066373,0.03481377092778797,0.026732687357012227
335,1456704152837901,0.04950080520718165,0.032303585119331686,0.04595169670732957,0.04128728002430272
336,1456704152851574,0.07510033685004336,0.035845827800593345,0.06272807384987437,0.06735036275868303
337,1456704152874570,0.10760269258326116,0.03985667574804942,0.08481486355246753,0.10398405308512142
338,1456704152897720,0.14507596848223653,0.04411836148815799,0.11133239429293808,0.14925553473394487
339,1456704152912571,0.18465185078187563,0.04803757089204647,0.14047349909316795,0.19983163714397836
340,1456704152935298,0.2223482293163552,0.05080590731975433,0.1692355022121558,0.2506303296180403
341,1456704152957591,0.2534687521098235,0.05172171857251946,0.19356267858917645,0.29502346649914957
342,1456704152971597,0.27376512409925075,0.05059177223412904,0.20910823930439168,0.32595361385341776
343,1456704152994598,0.2811211313477199,0.04807946693815042,0.21258817680220685,0.33794969730278
344,1456704153017937,0.2771050372270148,0.04582121776712058,0.20337786683983142,0.3295289233242322
345,1456704153032388,0.26751424645873445,0.04614163233186038,0.18470372529617116,0.3050103860500114
346,1456704153054704,0.2611893719647519,0.05131738474266206,0.16367629100509487,0.2745932514218816
347,1456704153078005,0.2670680747627005,0.06257260426815758,0.14968954269366336,0.2519981254730151
348,1456704153091999,0.29052710821874744,0.0792310494420195,0.15141619230376843,0.25009741346352493
349,1456704153115062,0.33080787117800314,0.09851150687115758,0.17345509551048435,0.2761922982320373
350,1456704153137798,0.38092710033029004,0.11620706893802256,0.2140750497941921,0.32897625145393355
351,1456704153152090,0.4300580794407002,0.12804064402724386,0.26511315896502224,0.3984052774242997
352,1456704153174800,0.4671281791471557,0.1311317574341013,0.3141718289797709,0.4684097506844793
353,1456704153198127,0.4842397250917251,0.12498042187970727,0.3483838214538872,0.521541958273559
354,1456704153212097,0.47906586503898163,0.11164556002226135,0.35852893484700726,0.544305878523472
355,1456704153234808,0.45567209620360305,0.0951259014848348,0.34218457323779944,0.5316353580405583
356,1456704153257831,0.42320040179308893,0.08015699058383516,0.3048004396210813,0.48882815543126446
357,1456704153271826,0.392270894043593,0.07075711964053223,0.2581405045884239,0.4297419386834877
358,1456704153303830,0.37019130372645676,0.06896696091102236,0.21642515420225958,0.3714908969897854
359,1456704153317833,0.3573632843350239,0.07423851519106738,0.19146726391909305,0.32774602469886377
360,1456704153332242,0.3472257130311432,0.0837082726746374,0.18865438145000676,0.3038413280045878
361,1456704153354996,0.33011809214403387,0.09322496165048916,0.20539049814034382,0.2961149922815504
362,1456704153377997,0.2988683247109577,0.09872692635129043,0.23256263406980476,0.2954425122453934
363,1456704153391988,0.2528261663206386,0.09749282068262709,0.2582363218005982,0.2925010809596165
364,1456704153414926,0.19828967671455702,0.08888184309101024,0.27187652806600704,0.28175425784058516
365,1456704153437918,0.1456060121209665,0.07437507177094543,0.2674235345396035,0.2625550103248636
366,1456704153451584,0.10485952684947228,0.05696858564081987,0.24436971221701076,0.23770208253269756
367,1456704153474948,0.08221389868390372,0.040165309383801466,0.2069757081404759,0.21092534531017282
368,1456704153497580,0.07813374996930639,0.026905703363458093,0.16237950083477348,0.18481185055399996
369,1456704153512580,0.08772574797196306,0.018768563300436386,0.11842450250546747,0.1600223964185043
370,1456704153535091,0.10276769683780279,0.01567784052421011,0.08177115514026848,0.1358331444778472
371,1456704153557432,0.114642907487921,0.016179818225093567,0.05658174775370734,0.11143846356472346
372,1456704153579427,0.11724108853803215,0.01814983515879262,0.043935699754454126,0.08721326945288614
373,1456704153594763,0.10890691644753894,0.0196335562579786,0.0420525888696555,0.06525273586642806
374,1456704153617730,0.09279023297928522,0.01950126304657845,0.047232676816530754,0.04890053111351609
375,1456704153632222,0.07548716589637136,0.017706504314575926,0.055202671582897954,0.04148559621991775
376,1456704153654846,0.06448784140248955,0.015127131130183703,0.06243007558337462,0.04488642848023361
377,1456704153677554,0.06539071327796585,0.013126001416117241,0.06700614501541104,0.05861564871668459
378,1456704153691735,0.0799186124039222,0.013028957256787349,0.06885213934397857,0.07982209182285074
379,1456704153714660,0.10544992531963088,0.015680714877670535,0.06924083154175546,0.10414718015904144
380,1456704153737656,0.13615544498002324,0.021168320610645046,0.0698964230536077,0.12702682201668083
381,1456704153751666,0.16514666216202525,0.02875697059862303,0.07210525688228585,0.1449208200026131
382,1456704153774668,0.18665233321399877,0.037058946025483944,0.076206739941003,0.15604089099602356
383,1456704153797948,0.19737661370446358,0.04440301889649803,0.08157527238921515,0.16037396635406362
384,1456704153811896,0.1967267029001518,0.04928660136960471,0.08694448474150113,0.15909280675710794
385,1456704153835111,0.18615805167944807,0.05074989293219119,0.09083333434945214,0.15369197125930906
386,1456704153858226,0.16817097374444925,0.04856341606266425,0.09191010099488535,0.1452614824341071
387,1456704153872105,0.14545145437995005,0.0432208319266191,0.08925469251976981,0.13418954037113645
388,1456704153895300,0.12041167898381736,0.03579223162094267,0.08255054036965283,0.12035901821694321
389,1456704153918301,0.09512253974413669,0.027696674717794287,0.072234136728502,0.10369025601413617
390,1456704153932285,0.07146055644621195,0.020436051917997057,0.059582943640850795,0.08475909056108455
391,1456704153955640,0.05125784255554021,0.015328677176658518,0.04667452910642115,0.06520477816971353
392,1456704153977648,0.03632336311290105,0.013290006497952176,0.03614287132366785,0.047730453561563385
393,1456704153991643,0.0283340932119686,0.014712085974108254,0.030716631536028164,0.035664854686286364
394,1456704154014644,0.02869352791894352,0.019473890979936483,0.03263630205624968,0.03224556448638934
395,1456704154037757,0.038449569455692,0.02706628177911007,0.04314809653417719,0.039910192697664534
396,1456704154059766,0.05825159978823732,0.03676075462538291,0.06226713368622235,0.05984904914639074
397,1456704154075063,0.08821386264857509,0.04773005791749757,0.08884943493220984,0.09187676870797286
398,1456704154097767,0.1275711699571364,0.05906363339456082,0.12081126122346668,0.13445956652865357
399,1456704154120051,0.17417746011998755,0.06969879610852667,0.15527324922491242,0.18467496392051735
400,1456704154134937,0.22409479400557136,0.07836913960661819,0.18856853450198763,0.23804845212569514
401,1456704154157022,0.27163243413347915,0.08370555979105586,0.21631254546461764,0.28850022872557163
402,1456704154189023,0.3101614689068912,0.08457713558450917,0.2338704293922582,0.3288457406425087
403,1456704154195023,0.3338116453840496,0.08063201833955966,0.23744669563193807,0.3522364309885112
404,1456704154217199,0.33974737016179507,0.0728431638681137,0.22568036919814577,0.3545111452944855
405,1456704154240134,0.3302247271756716,0.06375799577432015,0.20119675815279917,0.3367616529167687
406,1456704154254880,0.313307995201581,0.05716952176626241,0.17126739809972705,0.3068422744594292
407,1456704154276846,0.30129934992015867,0.05711467291643891,0.1468091760880497,0.27852709013106197
408,1456704154300057,0.3067964336605232,0.06643118863841344,0.13952720464478202,0.2678107138575491
409,1456704154314982,0.3376145091007709,0.08540834372673065,0.15789794086933703,0.2872581117187176
410,1456704154336609,0.39284034023606207,0.11113595293209202,0.2034607717895403,0.34060555433776835
411,1456704154360123,0.4621276288274645,0.13791995229150153,0.2690769573277922,0.4201070174371306
412,1456704154374124,0.528820461726379,0.15874605006087214,0.34022036119146704,0.5080447820942966
413,1456704154404126,0.5755810992280196,0.1674291219835708,0.3991810858880342,0.5819806844888896
414,1456704154419127,0.5901958681504438,0.1608264149554691,0.4308102172203977,0.6218316980018412
415,1456704154434633,0.5694708521142723,0.1403113108922157,0.42769508947994966,0.6163531903743874
416,1456704154457193,0.5199600761013746,0.11175386714826653,0.3927875013163751,0.5669156649667088
417,1456704154480145,0.45519398798233707,0.08373903513921395,0.3384589527595388,0.48717200084502854
418,1456704154495190,0.3902538988278224,0.06457416281869748,0.28228723707257986,0.39835561435840744
419,1456704154516514,0.3359350326687019,0.05930524016857153,0.24104314358935983,0.32165549030491386
420,1456704154540255,0.2953604898926361,0.06800013347292895,0.22500731146005748,0.2707921879249499
421,1456704154555281,0.2647095311721288,0.08594653737771335,0.23474528097706965,0.2482333005661009
422,1456704154577278,0.2372412488886727,0.10556383701990599,0.26163183520415234,0.24664364681141687
423,1456704154600257,0.2079474635344281,0.11918482284487181,0.2918094557073943,0.2541796169501638
424,1456704154614260,0.17626580504265285,0.12162390901671118,0.31164227023745866,0.2603152397447879
425,1456704154637088,0.145863898271093,0.11162216833986598,0.3121801726890994,0.25929869103388
426,1456704154668584,0.12218585197241848,0.09177098417660198,0.29104709459737027,0.2503303893994008
427,1456704154674944,0.10931401872453836,0.06715925893965238,0.2517342518272276,0.23546090100114855
428,1456704154696586,0.10768145393591806,0.04344690062377466,0.20138577635964275,0.21701048508912668
429,1456704154719871,0.11359432152762128,0.02513600598511343,0.1483281774220841,0.19599920284277855
430,1456704154735373,0.12068138282788302,0.014554002123326588,0.10012349842327634,0.17215027386813342
431,1456704154757380,0.12255285813610015,0.01169665684005785,0.06236835045216291,0.14506989056698985
432,1456704154779383,0.11544313146461924,0.01477755517231448,0.03814225401134933,0.11564566596998899
433,1456704154795384,0.099671865934002,0.021158125762356327,0.027955705162112952,0.08671909104402374
434,1456704154817384,0.07936384489310915,0.028288453376241935,0.03011138872860826,0.06258883149574664
435,1456704154840467,0.06069481902403733,0.03436141309669364,0.04140160537495697,0.04759387511129395
436,1456704154854802,0.04953922354974644,0.03854249998865405,0.05797891369874541,0.044519320106507755
437,1456704154876476,0.04951230035055306,0.040819307534687904,0.07616069664314709,0.0535983450864741
438,1456704154899472,0.06105194503029293,0.04163960149979476,0.09297018924687407,0.07248688274118201
439,1456704154914473,0.08163108285637168,0.04153424331144329,0.10635524572017208,0.09706061125673517
440,1456704154937268,0.10674190082475837,0.04086418521388107,0.1151525682173514,0.12255507812582361
441,1456704154960093,0.13113946267563462,0.03973782518288979,0.11891261646449644,0.1445705366002426
442,1456704154974813,0.149952462068837,0.03806743318172992,0.11768752732711087,0.15969285908389694
443,1456704154996813,0.1594949150799298,0.035697223384095214,0.11185468981694552,0.16574443867260608
444,1456704155020031,0.15777926431280506,0.03253691595787805,0.10201999760978027,0.1618267388173417
445,1456704155035222,0.14477190538796758,0.02865761116766191,0.08901527540007417,0.14830783113746412
446,1456704155056774,0.12238525951808084,0.02433714250592681,0.0739690238167318,0.12679843380863395
447,1456704155079770,0.09416546466026565,0.020063290210656018,0.05838676302101646,0.10005147689143577
448,1456704155094998,0.06468478999279854,0.016502118324312982,0.044143802150689124,0.0716940475715115
449,1456704155117002,0.03875660270904944,0.014424301727471901,0.03330936456367732,0.0457668102927115
450,1456704155140100,0.020668269374652368,0.01458204100116149,0.027808634554417247,0.02615512302847415
451,1456704155154799,0.013616491020504135,0.01755357498555973,0.02904138562408159,0.01607256509198672
452,1456704155177134,0.019430707033077296,0.02359708616354769,0.03761519522743969,0.01772805180254183
453,1456704155200134,0.03852471872301533,0.032552380045553525,0.05326826812411051,0.03216733939549712
454,1456704155215018,0.06991264145248006,0.04380281631511566,0.07492029243470652,0.0591447248416297
455,1456704155237114,0.11115767861298952,0.05629338371038605,0.10072821437469628,0.0968972470649586
456,1456704155260163,0.15829787991104485,0.06861102452034694,0.1280970850737574,0.1418794960197929
457,1456704155275167,0.20599871803541187,0.0791571608667697,0.15374314016699023,0.18873775738051715
458,1456704155296835,0.2482520478018698,0.08645172382784821,0.17400408885493265,0.23087842471225
459,1456704155319843,0.27975460468892865,0.08957454795634333,0.1855444798095958,0.2618028236216929
460,1456704155342160,0.2976751388301158,0.08865858167626674,0.18640202171588677,0.27697253981131925
461,1456704155357251,0.30306625891662187,0.08522587567162165,0.17705012571882736,0.27554641198954755
462,1456704155379160,0.3010198961160023,0.08208584580284398,0.16095889573762162,0.261166897761512
463,1456704155403177,0.299044223605294,0.08260325655285597,0.14417126909010872,0.24122260755906544
464,1456704155417179,0.30401619939820457,0.0894334558297407,0.13375174112536822,0.2246251723973014
465,1456704155440249,0.31904037058209345,0.10319844498507012,0.13550913315326718,0.21887633233368825
466,1456704155462342,0.34194489416108653,0.1217728421213546,0.1518360015528666,0.22766540734285404
467,1456704155477244,0.36640652696813647,0.140650496978977,0.18055645801907494,0.2500229195263688
468,1456704155500249,0.3850708447129319,0.1543471647729407,0.2153066021474203,0.28117807283745405
469,1456704155523288,0.39277785836958273,0.1582875724793241,0.247376998682434,0.31437821725323284
470,1456704155537093,0.3882329674347078,0.15041936849933604,0.2683636547823623,0.3427378810937852
471,1456704155559134,0.37383395693926336,0.1319613969296162,0.27266808549562166,0.36067060119614175
472,1456704155583169,0.35447453227208675,0.10708717753227895,0.25904622082177303,0.36496652052865236
473,1456704155597172,0.3361545670236529,0.0817334042702518,0.23090371387858702,0.355621585919108
474,1456704155620171,0.3245575495612484,0.061943653911781124,0.1954731811708103,0.3361771769468659
475,1456704155642859,0.3233461649192811,0.052208064762104024,0.16212172890860094,0.31302331571191117
476,1456704155657121,0.332274727000255,0.054231109763820076,0.1399813136443489,0.29329506391182303
477,1456704155679862,0.3460281362240324,0.06647983312314054,0.13524535424350786,0.28181781596298106
478,1456704155703130,0.3550870944498724,0.08467452838037857,0.14892201920214138,0.2786070835726817
479,1456704155717130,0.34911492439322256,0.10308132498428983,0.17613681121781488,0.27868822802061216
480,1456704155739452,0.32163700057285144,0.11618468560183924,0.2076543975168641,0.27477576247142116
481,1456704155763469,0.2735259595725727,0.12019991579818913,0.23315194952924423,0.26135303015094924
482,1456704155776739,0.2132123246915478,0.11396537762208048,0.24472991920081716,0.23763070901005615
483,1456704155799860,0.1533939149425515,0.09898844545291413,0.23906066396927933,0.20767271544069027
484,1456704155822763,0.10596415824903783,0.07872612554982032,0.21749593777622345,0.17790743127444342
485,1456704155836971,0.07766840946217561,0.05742957247961541,0.1846080773872357,0.15375895732056896
486,1456704155859489,0.06833349626965059,0.03896064588210041,0.14622785182795203,0.1373141690474776
487,1456704155882716,0.07203182278489939,0.025907011382091692,0.10786956766233324,0.12698143905094483
488,1456704155896484,0.080199647653895,0.0191739026429029,0.07387099921175556,0.11887634075753434
489,1456704155919789,0.08515582387924239,0.01808177927178372,0.04710775806820138,0.10895982496618131
490,1456704155942842,0.08267224677160942,0.020865605405569237,0.028998530458037564,0.09491697123324865
491,1456704155956804,0.07286526319235272,0.025370310687760574,0.019624328349565717,0.07710612355783016
492,1456704155979801,0.05937011789884842,0.02970225277637332,0.01794207331585073,0.05834521108913148
493,1456704156002020,0.04734654610804515,0.032648918113130296,0.02213621340212176,0.04272885399627639
494,1456704156017024,0.041212302632084516,0.033795957799673586,0.030097594579409297,0.03401138926904956
495,1456704156039518,0.04299820714191152,0.03339003689920426,0.03991649222425029,0.03422413356365356
496,1456704156062148,0.05186397818290036,0.032061788637095884,0.050223333711276845,0.04304440719438396
497,1456704156077146,0.06478122828351227,0.030525307218965063,0.06025869672030764,0.058067422002886136
498,1456704156100153,0.0779304352038327,0.029336496693505434,0.06968058186324991,0.07574372892258294
499,1456704156122151,0.08815132606144276,0.028752934839019483,0.07824835315258756,0.09252761256206475
500,1456704156136968,0.09387085511298729,0.0287072149970239,0.0855824053280057,0.1058014942232556
501,1456704156159793,0.09524455362168754,0.028882390544164433,0.09114301371530234,0.11432770230219348
502,1456704156181757,0.09364095496693305,0.02885549935800964,0.09442105558013272,0.11820989049247986
503,1456704156196758,0.09086631531977071,0.028256445291085692,0.09518261911557462,0.11851462313713715
504,1456704156219991,0.08851444427048408,0.026889186508429072,0.09357402977510176,0.11674730467886565
505,1456704156242205,0.08759447641326942,0.024785420495915932,0.09000452521680694,0.11431518274016236
506,1456704156257206,0.08837117325182449,0.02219031491010636,0.08489033550400968,0.11204483498719572
507,1456704156279208,0.090317977830126,0.01949387893999916,0.07843895438949229,0.10984243995296722
508,1456704156301421,0.09219073901135519,0.017121265886207434,0.0706209742872647,0.106657261981685
509,1456704156317209,0.09231052551250256,0.01540088392790205,0.06135872499938374,0.10088942962184108
510,1456704156340115,0.08908691489530457,0.014450464256818686,0.050834362434600544,0.09119074185754704
511,1456704156361121,0.08166262448730545,0.014137887294950705,0.03974880502816477,0.07734970233263526
512,1456704156376123,0.0704485873821082,0.014155098859272732,0.02938148635443712,0.06083795167441334
513,1456704156400149,0.0573265432910584,0.014189530107855163,0.021402855025583093,0.04472387211388306
514,1456704156422143,0.045397587435329054,0.014122689727917382,0.017512211532288092,0.03293759952732989
515,1456704156437116,0.03829284063166254,0.014163373384072347,0.019030151340225166,0.02913852106653341
516,1456704156459305,0.03922383496006215,0.01484436507290614,0.02655924556377994,0.035602477969037295
517,1456704156482145,0.05011072733146585,0.016870281338595326,0.03980513204015037,0.05257792260333501
518,1456704156506148,0.07116508593884528,0.020874069967372944,0.05764148788600666,0.07840572662586129
519,1456704156520144,0.10109244701213417,0.027178009217350953,0.07843378756326401,0.11034138481319937
520,1456704156542114,0.13769091584979376,0.035635421376938405,0.10048119345812351,0.1456113734619391
521,1456704156566144,0.17835751657858134,0.04557375086951894,0.12231615594961791,0.18206375254344048
522,1456704156579114,0.2201340241837455,0.055825049518750225,0.14266899388804302,0.21802273635681746
523,1456704156602139,0.2593675379061009,0.06484776085538138,0.16014729165212316,0.2515020755701871
524,1456704156626100,0.2914866231651829,0.07098057498106418,0.17292075833229262,0.2794079156045691
525,1456704156639844,0.31147553105193715,0.07286095859650712,0.17876996020423125,0.2974613957392855
526,1456704156661343,0.31528280926128616,0.06995685871750669,0.17570306472232627,0.30124303048552264
527,1456704156686343,0.3017936527653749,0.06303128399368478,0.16303429360869526,0.28816680310866405
528,1456704156699645,0.2744443785455239,0.05427113442496324,0.14248706502885905,0.2595910846259071
529,1456704156721630,0.24141903673766915,0.046865393233028435,0.11870376860905014,0.22196001014144262
530,1456704156745693,0.2138744624939079,0.04405327637938284,0.09866000030792817,0.18609073677422186
531,1456704156759848,0.20264784994913584,0.04797718329387188,0.08992085990649452,0.16450120001795338
532,1456704156781788,0.21478770863105695,0.05884801237537307,0.09825789220674568,0.1676406767948158
533,1456704156805851,0.2513192089525763,0.07479769621477744,0.12552317398647062,0.20042866128982179
534,1456704156819845,0.30687324177804814,0.0924265358035215,0.168602322728933,0.2603018809804507
535,1456704156841359,0.3709335830710381,0.10773159747547804,0.21982603259459482,0.3373130717606114
536,1456704156865356,0.4301815021556824,0.11706228861812053,0.26872486361427383,0.4162352029866406
537,1456704156879356,0.4715976104990558,0.11793486167262784,0.3046727538095975,0.4802497836173693
538,1456704156901357,0.485969495044053,0.10967220522516537,0.31976693256087807,0.5154582333138308
539,1456704156926151,0.47097611691178826,0.09376732578793225,0.31118481871993153,0.5150645446698466
540,1456704156939663,0.43251093612671604,0.07375096383569014,0.282292022122601,0.48182237734048045
541,1456704156962160,0.38308195610212775,0.05440881721629255,0.24201651817579067,0.4275406627027711
542,1456704156984167,0.33728508257089895,0.04046758114688472,0.20244061459784712,0.3692925103669153
543,1456704156999168,0.306008838869692,0.03516604300926689,0.17513637922236677,0.32334662008403714
544,1456704157021168,0.2921487055662059,0.03924110723592228,0.1673666975249707,0.29919969901893445
545,1456704157044635,0.2901807212434737,0.05071677776144625,0.1796084269359672,0.2965170696527117
546,1456704157059423,0.2898566242542991,0.06557530347650031,0.20554415442015866,0.30655086743059967
547,1456704157081582,0.2818304270816497,0.07906513310954387,0.23462694695408307,0.31714119223653814
548,1456704157104390,0.2620410119152317,0.0871728680000068,0.2560607204559008,0.3184270707795051
549,1456704157119637,0.23279412276254743,0.08773271972340803,0.26238738654204663,0.306362417469863
550,1456704157142102,0.20061684459356396,0.08081214352707489,0.25126148088510014,0.28282413591059447
551,1456704157165120,0.17254334645967262,0.06833361924596226,0.22507964373950506,0.253073187806798
552,1456704157188120,0.15284405868886033,0.053195042023018495,0.1891608379245772,0.22241167831924194
553,1456704157202105,0.1415709097900716,0.03828675859117735,0.14960008149092457,0.19380968252153802
554,1456704157225097,0.1352180025036623,0.02575078938262937,0.11168766318879347,0.16739895520286716
555,1456704157239831,0.12881988360342816,0.016657525489677392,0.0792053544353344,0.1416219406441111
556,1456704157262339,0.11832373724147338,0.011083798250485924,0.05438925247643849,0.1150593725524408
557,1456704157284641,0.10220465157507783,0.008447173048810014,0.038153775782070284,0.08785252548248142
558,1456704157299639,0.08184412105819748,0.007916800906994797,0.03030311649177711,0.06208304249361293
559,1456704157321627,0.060788632711091514,0.008754478435514064,0.02970500215432636,0.04109511087100613
560,1456704157344763,0.043362832411259974,0.010498810217842361,0.03454071866160686,0.028200383461300917
561,1456704157359436,0.03318261301611155,0.012970542843699537,0.042698683039913234,0.025372321309596838
562,1456704157381831,0.032022233507502704,0.01614111472184394,0.052237646060500846,0.03245476442311081
563,1456704157404764,0.03935397448612992,0.01995355047653908,0.06175141382132386,0.04716633867547927
564,1456704157419439,0.052703288346102516,0.024193953211411916,0.07048924131267839,0.06586786281516782
565,1456704157441469,0.06869233566110369,0.028475853955398013,0.07820438866957971,0.0847664000044219
566,1456704157464470,0.08431918586466686,0.032335764821155875,0.08484798225786518,0.10104943981996133
567,1456704157479471,0.09785106660824908,0.035379772734555816,0.09030148376842907,0.11347002395902549
568,1456704157501756,0.1089196663308222,0.03739698278701888,0.09428321974480183,0.12218124035274602
569,1456704157524814,0.11792452012979841,0.0383762952298316,0.09641747458679145,0.12802844135467353
570,1456704157539864,0.12527923562306525,0.038419627976363,0.09635141913001878,0.13178254190144392
571,1456704157561334,0.13102371464086915,0.03761048073740863,0.09382801490821584,0.13373810040237993
572,1456704157584637,0.13492982654894847,0.03592989862569262,0.08872096298177282,0.13377309788976793
573,1456704157600335,0.13682826348548974,0.03328269150704654,0.08109626228607805,0.1316494547713975
574,1456704157621629,0.13679297974899116,0.02962228912839348,0.0713285916537787,0.12725219668619378
575,1456704157644763,0.13503336295585702,0.025098851598099704,0.060212954690101336,0.12061904393271446
576,1456704157659760,0.13162377171834538,0.020144511707418267,0.04896052103263602,0.11182721247041348
577,1456704157681432,0.12631398444865294,0.015446398593377509,0.039007693170700276,0.10091565072700852
578,1456704157704694,0.11857811559767048,0.011809969609043541,0.03167782449428769,0.0879789256611869
579,1456704157721666,0.10791657725368954,0.009957928176748659,0.02783505987969262,0.07343044371200527
580,1456704157741670,0.09433336475014671,0.010334012240570933,0.02769112877088096,0.05829968677348849
581,1456704157764664,0.07883054738334394,0.01298181066562102,0.03086089710624533,0.04437723235703751
582,1456704157781666,0.06367301491185826,0.01754512993564786,0.03664497107187442,0.034074893931353684
583,1456704157801958,0.052202774698149684,0.023393380933992857,0.044400727333434434,0.03000835741383971
584,1456704157824969,0.048204542546783344,0.029826861401057874,0.05381432959629006,0.0344686573920187
585,1456704157847983,0.05508728242851398,0.03628238864678856,0.0649421037749103,0.049007595965808545
586,1456704157862136,0.07520272497964625,0.04245504459942381,0.0780091950344309,0.07424706539427962
587,1456704157885166,0.10942322429730188,0.04828069386575807,0.09305895772550363,0.10981676373113283
588,1456704157907135,0.15685310534095515,0.053781200397313045,0.10959632945443686,0.15421725273531717
589,1456704157923169,0.21449972363740727,0.05884600901291824,0.1263662043247914,0.20450832001806127
590,1456704157944301,0.2769488990434406,0.06307835248504358,0.14137329144317765,0.25597560426294763
591,1456704157966304,0.33640667038515376,0.06582937076401153,0.15220067087976755,0.30215815577718547
592,1456704157981300,0.38361218637386335,0.06646294763360423,0.15662162617899172,0.33565448538050824
593,1456704158004520,0.40989994454394557,0.06477253881649182,0.15340833815597646,0.3498773076206069
594,1456704158027836,0.4101062328063162,0.061368109869352865,0.1431207152462075,0.3414422645889419
595,1456704158041541,0.38532414583190067,0.057815212297842825,0.12855119765187983,0.3123453198816332
596,1456704158064547,0.3441223959014469,0.05636930198103932,0.11449207181386134,0.2708050846449559
597,1456704158086764,0.30112965437233247,0.059309251223939534,0.10667361129111058,0.22990400492116536
598,1456704158102759,0.27292033918072567,0.06808254152822109,0.1100992872260293,0.20402945890871949
599,1456704158124779,0.2725184677297607,0.08262054594502122,0.12738968754211671,0.20426933684581997
600,1456704158147803,0.3048019758194645,0.10114978699306654,0.15782186369561688,0.23467522279712652
601,1456704158165784,0.36491551607711054,0.12059219064242738,0.19737727012545705,0.2910423508587771
602,1456704158185124,0.4403392869362488,0.13735980656889715,0.23958255048243537,0.36257728880166173
603,1456704158207069,0.5153338836945146,0.14822803380683996,0.27672748051910784,0.4353681193982778
604,1456704158221792,0.5754921888730501,0.1510774654495479,0.30126874426262484,0.4959924766707707
605,1456704158245160,0.6108076377698127,0.1454530623471764,0.3074557814186571,0.5341903118605209
606,1456704158267888,0.6171824186802514,0.13290528329864953,0.2930703813741857,0.5445400705013703
607,1456704158283083,0.5970582971785959,0.1169584086997696,0.2607760824464336,0.527495158821819
608,1456704158305082,0.5592441312095595,0.10247750891762712,0.21833582773842283,0.48969160228073483
609,1456704158326834,0.5170523275666304,0.09434748978837385,0.1771475992568864,0.44281765223115876
610,1456704158342140,0.4840328010690721,0.09574862300554576,0.14915976291202623,0.40046363071980146
611,1456704158364157,0.4682615397701627,0.10671280388634756,0.1430357542722052,0.3734877435596979
612,1456704158388157,0.46804003829972035,0.1237339008731459,0.16103997391246264,0.36582923318150484
613,1456704158403159,0.47207946708493226,0.14078640614309343,0.19804713460472032,0.3731544545610161
614,1456704158425160,0.46493620230726806,0.1513998607091903,0.2431784236219765,0.38542664887426403
615,1456704158447183,0.4350273584284721,0.15092590480737544,0.28332216356279116,0.39204629427756676
616,1456704158461183,0.380717022233557,0.13809677881724636,0.307030575848835,0.3865299550190527
617,1456704158484397,0.31121763471437847,0.11531763482751818,0.3074209350133399,0.3682371906229587
618,1456704158507452,0.24224762215776235,0.0876460348679184,0.2834461372361339,0.3408396537672462
619,1456704158522519,0.18910249548989666,0.06091547768364136,0.23961492989506233,0.309159623833265
620,1456704158552122,0.16056280024254602,0.0397798815131429,0.18457127698613648,0.2764587484472165
621,1456704158576148,0.15606443630585493,0.02644391380273579,0.12896028543298535,0.2434540437390368
622,1456704158583148,0.16682468358415192,0.020492808351962693,0.08298350582816372,0.20918085559209895
623,1456704158605144,0.18005249181877106,0.019714336943013982,0.05411835360285231,0.172965871291872
624,1456704158627923,0.18438565497143963,0.021381925303261082,0.045554963991403186,0.13637802774187874
625,1456704158643216,0.17439168304141217,0.023354159611921988,0.05579915999787618,0.1040435139885527
626,1456704158664219,0.15239548148758733,0.024564600348440453,0.07951980245472988,0.0826704899481161
627,1456704158688219,0.12700469306560083,0.024862977466710366,0.10924150210983326,0.07850341580947158
628,1456704158704220,0.10910902698572629,0.02450042182712777,0.1372184085418418,0.0943322977350877
629,1456704158725221,0.10718257523983193,0.023663969365226252,0.1569567898476358,0.12753960376993778
630,1456704158748367,0.12391396127118993,0.022324887240723987,0.16421558437074116,0.17023839413027725
631,1456704158763369,0.15546530270208941,0.020389610817556945,0.1575472868502398,0.2115928579615054
632,1456704158784670,0.19335984129726888,0.017938291177710352,0.13840230964446007,0.24137127035882036
633,1456704158807742,0.22775689425339102,0.0153389648235932,0.11070952593325872,0.2531507601123465
634,1456704158823371,0.2504259659195395,0.013177429194023827,0.07990487772107623,0.24579609387612172
635,1456704158847166,0.2563635421334024,0.012074824818748265,0.05159532661491244,0.22283963692821124
636,1456704158867208,0.24411122018486126,0.012488316153366524,0.030230495243686456,0.19050279242062879
637,1456704158883166,0.21545150006393077,0.01455145727658423,0.018180864753515928,0.15551872783222534
638,1456704158905167,0.17491790254102577,0.01798350807464684,0.015482728288541582,0.12351813356923169
639,1456704158927745,0.12899786143271474,0.02209846785607473,0.020265536275977145,0.098111759197801
640,1456704158943258,0.08476635273632721,0.02594556730321882,0.029621478553190188,0.08052945688771383
641,1456704158964261,0.048121875994912085,0.028579054228062,0.04052592468791689,0.06976979465725211
642,1456704158987268,0.02230503478448388,0.02938285447187666,0.05046403868031013,0.06329413919501554
643,1456704159003262,0.007405181913975277,0.02830962567874256,0.057654653566921454,0.058149845474674375
644,1456704159025263,0.0010651288161078365,0.025900265636114334,0.06102721226256132,0.05218342143017609
645,1456704159047531,0.0,0.023051629694409055,0.060192186711652516,0.04492031662828112
646,1456704159069533,0.0016329994033241885,0.020637366773166733,0.05549768939642732,0.03777376359283226
647,1456704159084539,0.005183880105726912,0.01916463793145941,0.048054562987567176,0.033450469347128045
648,1456704159107757,0.011807951436606555,0.018623737687078194,0.039555247007724184,0.034717193124755207
649,1456704159129751,0.02375480375968364,0.018589794782865737,0.031853671043355375,0.04299589434696201
650,1456704159144705,0.04289873991355203,0.01852222908147063,0.02646371284931163,0.057397497344833126
651,1456704159167728,0.06926841573237828,0.018115781926276914,0.024197156368369305,0.07465988353497438
652,1456704159189773,0.10024529392589711,0.017518640798841547,0.025067670879066903,0.0900749249880455
653,1456704159204802,0.13085568904275527,0.01728558845067946,0.028444450763964027,0.09907219496871528
654,1456704159228075,0.15512503413485199,0.01807473994746658,0.03335738361524968,0.09886183870860782
655,1456704159249579,0.16797718856867763,0.02024842631291726,0.03884252393240002,0.0894967209866824
656,1456704159272589,0.16687742409984171,0.023600817469341787,0.04421332510452576,0.0738950155569457
657,1456704159287589,0.15252446745491233,0.027367265306226875,0.04913792582923632,0.05675084504853807
658,1456704159309870,0.12838084040530395,0.030517398236023896,0.053470460645816065,0.04274611716191827
659,1456704159324875,0.09940335212293185,0.0321814688141537,0.056959034566050025,0.03482447549988886
660,1456704159347888,0.07063144296938645,0.031990684208906134,0.059098665040005875,0.03327293407928707
661,1456704159369889,0.046170340701362486,0.03016897897137865,0.059326454874622264,0.03596243236833155
662,1456704159385123,0.02873976854039505,0.027359668383852627,0.05747669032629594,0.03954558463673521
663,1456704159407892,0.01964196288634056,0.024309227652033406,0.054153719598255975,0.040993408952088244
664,1456704159429716,0.018911921361343467,0.021580278032211127,0.0506737091108186,0.038766675733297236
665,1456704159444189,0.02551707198214361,0.01941597579317411,0.04851057536684297,0.03317841874348591
666,1456704159467233,0.037618553580117564,0.017780305954759643,0.04855155053147385,0.025952129484682625
667,1456704159489197,0.052953091577011724,0.016514978550050997,0.05062322692692328,0.019350494673327234
668,1456704159504192,0.06930538709836759,0.015512826904377369,0.05356533490791273,0.015336954638284942
669,1456704159527738,0.08490178963962663,0.014813329863183072,0.05577870475277363,0.015044757306692854
670,1456704159551248,0.09852425936961769,0.014576604036123883,0.0559285748289373,0.018571972199132397
671,1456704159564211,0.10930236341650316,0.014966859981099171,0.05346033968263258,0.025007629555724324
672,1456704159587457,0.11638281942731239,0.01602583468482013,0.048723266573017045,0.0326472754048668
673,1456704159609410,0.1187873949336164,0.01760732729812817,0.042701764953801166,0.039421136256800965
674,1456704159626249,0.11564146842570096,0.01939438930289367,0.036538756070843316,0.04349859428661132
675,1456704159647448,0.10667647304983366,0.02097622111705482,0.03111256586019619,0.043882340126814745
676,1456704159677621,0.09267529711323991,0.021947442824209906,0.02684999965717821,0.04072105520573305
677,1456704159686587,0.07549793979214704,0.022001039603604545,0.02378307229967279,0.03516387786282438
678,1456704159707691,0.057533785146390785,0.020997109690041448,0.02171987163041901,0.028810244189840725
679,1456704159729632,0.0407781899607365,0.018992587628906626,0.020389871762582987,0.02301853601917237
680,1456704159746139,0.026013886963080306,0.01622322100035074,0.019508472438466547,0.018396498967998214
681,1456704159767383,0.01258056350741471,0.013047965847588201,0.018789246655280607,0.014690591844604575
