,emg1,emg2,emg3,emg4,emg5,emg6,emg7,emg8
0,0.13282255869181325,0.2663573569129022,0.2697604503632816,0.06289822762307702,0.21345403295078508,0.30368065874973205,0.2469883771664965,0.18702926632349215
1,0.1329994818630814,0.26706323183660063,0.2730539910849281,0.06271902007111367,0.2138223033434434,0.3054501613972007,0.24105209213443865,0.18788128449298772
2,0.13370752820533807,0.2676220714400032,0.2754321705332431,0.06251673443156404,0.21402700212879036,0.3072699153728569,0.2358347041739669,0.18868973181000595
3,0.1349498053914668,0.2680334642903822,0.276853141699008,0.06228848557008211,0.21408082739323564,0.3091074461076786,0.23142984797273994,0.1894463554039847
4,0.1367194981822032,0.2682995399671083,0.2772941098764007,0.0620332803676197,0.21400147904189246,0.31093072555327744,0.2279163081189441,0.19014200914320667
5,0.13899970617934662,0.26842588424242864,0.2767524560881993,0.061752158383430435,0.21381085803739688,0.3127091773418538,0.22535574509013964,0.19076678579072456
6,0.14176360677066058,0.268422486139156,0.2752461766817972,0.06144824553801938,0.2135338894947425,0.3144146808389238,0.2237911311402682,0.19131022568313735
7,0.14497492147703678,0.2683045719862685,0.2728135557529845,0.061126709872834924,0.21319706344681671,0.31602251733254505,0.2232459391256828,0.191761601667328
8,0.14858864052323814,0.26809315772237097,0.2695120335522406,0.06079461379462504,0.21282681794860406,0.31751220719755924,0.2237240773964172,0.19211026106698653
9,0.15255194505723485,0.2678151532384554,0.26541628330116684,0.060460661415796174,0.2124479011933812,0.3188681970666706,0.22521051566143854,0.19234599606562688
10,0.15680526406425982,0.2675028964324361,0.26061556637265043,0.06013484558611671,0.2120818436472976,0.3200803669847948,0.22767250238189315,0.1924594129831028
11,0.16128341286094208,0.2671930761473603,0.2552104959291946,0.05982800842147545,0.2117456541003872,0.3211443365603554,0.2310612402136971,0.19244226842351472
12,0.16591677555523535,0.26692509711682183,0.24930939134900315,0.05955133931911846,0.2114508303923392,0.3220615564356559,0.2353138667827731,0.19228773467247776
13,0.17063250713008965,0.2667390169419339,0.243024443725028,0.059315841829486786,0.21120274632627734,0.32283917367285164,0.2403555813615998,0.19199055822607164
14,0.17535573625347314,0.2666732283664238,0.236467929107864,0.05913180315464975,0.2110004403624498,0.32348965438568644,0.2461017597780974,0.19154708873678844
15,0.18001074857559213,0.2667620705217811,0.2297486930245212,0.05900829745077945,0.21083679314368264,0.3240301397841333,0.2524599125896266,0.19095517213186586
16,0.18452213172518966,0.2670335410141917,0.22296909044361726,0.05895274802573663,0.21069904672047468,0.32448151379667906,0.2593313725755603,0.190213911958102
17,0.18881587573309186,0.26750725647387785,0.2162225134600114,0.0589705660239893,0.21056959268968786,0.32486718042750945,0.2666126516854189,0.1893233098075221
18,0.19282044116250185,0.2681927787345153,0.2095915837027474,0.05906487550407611,0.21042693709348884,0.3252115870281083,0.2741964821435773,0.18828380735288647
19,0.1964678189219586,0.2690883938971531,0.20314702955521166,0.05923632722629035,0.2102467348080989,0.3255385729920233,0.2819726358782058,0.1870957689592893
20,0.19969460498701536,0.2701804095160633,0.19694721487728412,0.0594829972451886,0.2100027848957719,0.3258696556733441,0.2898286737504969,0.18575895492451885
21,0.20244310462069454,0.27144302281510657,0.1910382467969724,0.05980036412155515,0.2096679063790549,0.3262223849385389,0.2976507920696372,0.18427203409948856
22,0.2046624707233626,0.2728388028320791,0.185454570933708,0.06018136110254764,0.20921466914376555,0.326608913488171,0.3053249125466567,0.18263217643389426
23,0.20630987189548408,0.2743198097724992,0.1802199568622487,0.06061650412415446,0.20861601167674176,0.3270349361619157,0.31273812087184194,0.1808347626055196
24,0.20735167370643787,0.2758293375503132,0.17534877244474986,0.061094098735541766,0.20784581079346415,0.3274991290251453,0.3197805122931576,0.1788732526616169
25,0.20776459572176986,0.2773042128727519,0.17084743659266113,0.06160052700130135,0.20687947380486787,0.3279931650762489,0.3263474532691075,0.1767392587374874
26,0.2075367784971856,0.2786775301481245,0.16671593237965562,0.06212061058552661,0.20569461124794453,0.32850231652300005,0.33234221405694675,0.17442285813229125
27,0.20666867016334664,0.2798816634763354,0.16294926948947694,0.06263804205926621,0.2042718295581108,0.3290065924075617,0.337678868931759,0.17191316313741276
28,0.20517363444924253,0.28085138266617665,0.15953881449049478,0.06313587515088166,0.2025956633821865,0.3294823126340881,0.342285307912092,0.16919913960654326
29,0.20307819562250864,0.2815269021916672,0.1564734524258215,0.06359706493633223,0.20065564634925012,0.3299039875497091,0.3461061689154725,0.16627064112756865
30,0.20042186251513786,0.2818566999351017,0.1537405835269782,0.06400504794219011,0.19844749389322824,0.3302463573051847,0.34910548815674136,0.16311960292633434
31,0.19725650147647,0.2817999559265504,0.15132697569126488,0.06434434809749061,0.19597433998240366,0.3304864461141657,0.3512688749516333,0.15974132431269186
32,0.1936452551410487,0.281328484329739,0.14921948606949764,0.06460118799336875,0.19324793302496,0.33060549661621125,0.35260503612449495,0.15613576215030675
33,0.18966103517871094,0.28042806396208897,0.1474056514673013,0.06476407909843522,0.1902896635558475,0.33059065841096097,0.3531465027071599,0.15230875567564892
34,0.18538464848272307,0.27909910975580554,0.14587414519151815,0.06482436424478069,0.18713128387463035,0.33043630968751875,0.3529494546904489,0.14827310017664036
35,0.18090263619229008,0.2773566677674622,0.14461510888400206,0.06477669359779198,0.18381520149557448,0.330144901655899,0.3520926002646904,0.14404938443200596
36,0.17630491062187784,0.27522975906983244,0.14362037939095038,0.06461942849243855,0.18039428183781825,0.32972724509314,0.3506751291003234,0.13966650976528994
37,0.1716822753424858,0.2727601406549718,0.14288363306148508,0.06435497896750535,0.17693116203906206,0.3292022144262422,0.34881380953614755,0.13516182541509875
38,0.1671239178676467,0.2700005875329914,0.14240046515547355,0.06399008494034594,0.17349713369450334,0.32859592172851626,0.3466393432473576,0.13058085245771014
39,0.1627149727181179,0.26701282088461337,0.1421684174842133,0.06353604703609934,0.1701706821460165,0.3279404826854949,0.3442921398375243,0.12597661993458428
40,0.15853425549225725,0.2638652097729631,0.14218696535734646,0.06300890492097189,0.16703577344862622,0.3272725277245597,0.34191771768648904,0.12140868011777753
41,0.15465225815716913,0.2606303661095448,0.142457471791091,0.062429553088763585,0.16417997011841132,0.3266316033647117,0.3396619529687127,0.1169418867522499
42,0.15112947641599636,0.25738274626914004,0.14298310823069138,0.06182377757862058,0.16169244526433796,0.3260585837857552,0.337666378132185,0.1126450117560308
43,0.14801512204762404,0.25419637211476154,0.14376872698223994,0.06122219088438546,0.15966195404849154,0.3255941832953837,0.33606368897781186,0.10858925668390366
44,0.1453462596113547,0.2511427792732611,0.14482065871892785,0.0606600375553846,0.15817481030266914,0.32527762773209795,0.33497357754332685,0.10484669844852654
45,0.1431473927913988,0.2482892792158585,0.1461464073047003,0.0601768437159049,0.1573129068595752,0.32514551045743323,0.3344989791141146,0.1014886996191052
46,0.14143050713132904,0.2456975875880052,0.14775422365771967,0.059815891509113726,0.15715181392900882,0.3252308282332137,0.33472280750798433,0.09858431227732804
47,0.14019555433226386,0.2434228401418317,0.14965255359246912,0.059623510649942174,0.15775898913474962,0.32556216349560657,0.3357052516037328,0.09619871054553733
48,0.1394313413319998,0.2415129991759901,0.15184936710857982,0.05964818937539676,0.15919212975830382,0.3261629641767104,0.3374817129965265,0.0943916982900226
49,0.13911676700524786,0.2400086449896703,0.1543513881229292,0.05993951540241591,0.16149768884295468,0.3270508856000375,0.3400614647428494,0.09321634752210382
50,0.13922233351097685,0.23894314191982116,0.157163252803454,0.060546965037112974,0.1647095655430653,0.3282371924132104,0.3434270908035729,0.09271782148716948
51,0.13971185116911272,0.2383431615798708,0.16028662867195884,0.061518564488106116,0.1688479716922022,0.3297262438504608,0.3475347327486484,0.09293242491950088
52,0.14054425488016856,0.2382295311203589,0.1637193265988124,0.06289945106791643,0.17391847302960073,0.33151508740860536,0.3523151436446048,0.09388691030289444
53,0.14167545272890428,0.2386183460850987,0.16745443870591614,0.06473036554986754,0.1799112084079063,0.33359317505561864,0.3576755319817108,0.09559805753165616
54,0.14306013112710214,0.2395222459447748,0.17147954017565367,0.06704611286054306,0.18680030881769116,0.3359422130088192,0.36350215732299096,0.09807253219879357
55,0.144653447534306,0.24095170736428445,0.17577600313880976,0.06987403588671193,0.19454356463092154,0.3385361664610169,0.3696636048285638,0.10130701130980116
56,0.1464125533053317,0.2429161872775321,0.18031848627692526,0.0732325541420123,0.20308240458373705,0.3413414487216089,0.3760146255429005,0.10528854608029592
57,0.14829790149439126,0.2454249608130488,0.1850746773566625,0.07712982364675428,0.21234223725397264,0.34431731617832906,0.3824004018045719,0.10999511540214027
58,0.15027430147130988,0.2484875407532555,0.19000536404407603,0.08156257594031482,0.2222331671795419,0.3474164721977966,0.388661093334041,0.11539631558275565
59,0.15231168450519225,0.25211361425921697,0.1950648856549619,0.08651519281519651,0.23265105253332946,0.3505858665649249,0.3946365284180368,0.12145413189762437
60,0.15438554758217612,0.25631248191945777,0.20020198502495387,0.09195906924690402,0.2434788437367848,0.3537676660524327,0.40017090276080747,0.12812374130807958
61,0.1564770508603444,0.26109204003883685,0.205361051021732,0.09785230964159124,0.2545881449311492,0.3569003684785457,0.4051173278313284,0.1353543017112999
62,0.15857276121968256,0.2664574000243341,0.21048372671494933,0.10413979247614304,0.2658409629620379,0.35992003909398257,0.4093420508877068,0.1430896951084421
63,0.16066406491884144,0.2724092627968941,0.21551085241164825,0.11075362807025717,0.27709163154569383,0.36276165467926297,0.41272818167981057,0.1512692143783374
64,0.16274631451939858,0.2789421526166457,0.22038470598043505,0.11761402516673697,0.288188912435073,0.3653605324645284,0.4151788179153813,0.15982821160708016
65,0.16481781527245096,0.2860425843998873,0.22505148641888226,0.12463057237654313,0.29897828433497303,0.3676538019377881,0.4166195375096096,0.16869874602602314
66,0.16687877567197393,0.2936872186628466,0.2294639604500741,0.1317039271714415,0.3093044392294112,0.3695818699319941,0.4170002755299125,0.17781026938490105
67,0.16893033669970686,0.3018410630116257,0.2335841647774517,0.13872788712230402,0.3190140148661375,0.3710898397920851,0.4162966037496023,0.18709036682119565
68,0.17097376079314097,0.310455808319002,0.2373860385144217,0.14559179719957266,0.32795859322583754,0.3721288543454229,0.414510394304175,0.1964655436939216
69,0.1730098204533721,0.31946842664588604,0.24085785119539446,0.15218322517694013,0.33599797361521955,0.3726573274616029,0.4116698052137853,0.2058620271164644
70,0.17503839329030155,0.3288001841804499,0.24400427878339045,0.15839081596849947,0.343003678713367,0.37264202354710624,0.4078284988376776,0.2152065443220016
71,0.17705825457686108,0.33835622054641085,0.24684795500353554,0.16410721731587755,0.34886258214622,0.37205895219955226,0.4030640129044401,0.22442705088835435
72,0.17906705858030028,0.3480258138122729,0.24943030605118136,0.16923195881576705,0.3534804760214414,0.3708940635615756,0.39747525596474015,0.2334534051361485
73,0.18106150345210875,0.3576833979577314,0.2518114964795927,0.17367417072548433,0.3567853444282455,0.3691437519909607,0.3911791844669146,0.24221800984323
74,0.1830376662891584,0.3671903421933251,0.2540693830425798,0.17735504833230994,0.3587300852323205,0.3668151957021317,0.3843068129153816,0.2506564584039721
75,0.1849914699447438,0.37639745153701,0.25629746613996673,0.18020999049060804,0.35929442855084515,0.36392656652760014,0.3769987890595367,0.2587082266515684
76,0.18691921021881505,0.3851481086566722,0.2586019139080029,0.1821903567490433,0.3584858364815164,0.36050712933683743,0.36940081569421424,0.2663174464511288
77,0.18881804580611455,0.39328194537743455,0.2610977976779955,0.1832647996957424,0.3563392465536093,0.3565972220236984,0.36165920455025263,0.2734337834239272
78,0.19068634149893707,0.4006389044987461,0.26390471707258417,0.18342014589716055,0.35291564820726795,0.35224807722971635,0.3539168036686551,0.2800134158714091
79,0.1925237581450742,0.4070635316100904,0.2671420123136582,0.1826618174286952,0.3482996324122971,0.3475214262921263,0.34630946961535325,0.28602007537216545
80,0.19433100580243148,0.4124093346092085,0.27092377062936585,0.18101379766969952,0.3425961782665746,0.3424888224694279,0.3389631891903144,0.2914260679398487
81,0.1961092276302596,0.4165430732440281,0.2753538401856013,0.17851814976360694,0.3359269980172546,0.3372306350797131,0.3319918999820501,0.296213155514529
82,0.19785905415631155,0.4193488812440434,0.2805210674579477,0.1752341011256886,0.3284267502019011,0.3318346882473864,0.325496005264352,0.30037314618578265
83,0.1995794355646338,0.4207321541382295,0.28649496873763275,0.17123671384161626,0.32023937222664417,0.32639453750610226,0.3195615246172929,0.30390802778811943
84,0.20126640211296576,0.4206231370500686,0.2933220289339636,0.16661516547302935,0.3115147049479832,0.32100739615137897,0.31425977760449786,0.3068295037361762
85,0.20291191472458234,0.4189801213962002,0.3010227863654639,0.16147067142119614,0.30240549983817233,0.3157717457028625,0.30964746866920145,0.3091578660204919
86,0.20450295363607546,0.4157921256551748,0.30958981418587944,0.15591409517354807,0.29306482467375816,0.3107846874928009,0.3057670274827088,0.3109202487946541
87,0.2060209601687572,0.4110809083239187,0.31898665771103185,0.15006331337086726,0.2836438297953176,0.3061391109782432,0.3026470711246572,0.3121484033725657
88,0.20744170635231574,0.4049021500624313,0.3291477373000699,0.14404041914773122,0.2742898171494155,0.3019207739223143,0.3003029017521259,0.31287619399257505
89,0.2087356303895145,0.3973456544938647,0.339979176204706,0.13796885456616625,0.26514456542111464,0.2982054155677342,0.2987370169682941,0.3131370361638281
90,0.20986864573971506,0.3885344563930839,0.3513604644477982,0.13197056114896702,0.25634288454888743,0.2950560521490485,0.29793965700334235,0.3129614984000806
91,0.21080340239810694,0.3786227892622066,0.3631468398064573,0.12616322803151545,0.2480113799546912,0.2925206231464696,0.2978894336850165,0.3123752694900499
92,0.2115009463045464,0.3677929398066093,0.3751722741594259,0.12065770413266393,0.2402673947295464,0.29063015306038315,0.2985540931528277,0.3113976566377781
93,0.21192269078952852,0.3562510805490625,0.3872529957688123,0.11555562946626187,0.2332180753118663,0.2893975592820633,0.2998914616652811,0.3100407242598735
94,0.21203259211436856,0.3442222060461914,0.3991915258190835,0.11094733344462078,0.2269594880646502,0.2888171783794105,0.3018506062645078,0.30830911632141955
95,0.211799413680383,0.3319443167708829,0.4107812231197228,0.1069100426645787,0.22157571416010766,0.28886501900134826,0.3043732117500693,0.3062005450485249
96,0.21119896318059814,0.319662028833312,0.4218112973926201,0.1035064336796726,0.21713787447159694,0.28949969833077793,0.3073951432909726,0.3037068925263634
97,0.21021618365849026,0.30761984432493844,0.43207218478765147,0.1007835552265943,0.21370308065082436,0.2906639921885176,0.31084813897649904,0.3008158562961737
98,0.20884697186930065,0.2960553681111648,0.4413611127876992,0.09877213058033024,0.21131335785547992,0.2922869256875328,0.3146615606660853,0.2975130541174586
99,0.20709959408052755,0.2851927696693185,0.44948764282880893,0.0974862396932206,0.20999461795905014,0.29428633660607084,0.31876412276328314,0.29378447040001165
100,0.2049955817769708,0.2752367560880625,0.4562789760906309,0.09692337693361414,0.2097557675735928,0.29657183957734995,0.3230855192721072,0.2896190840083431
101,0.2025700233512987,0.26636726393546456,0.4615848297875226,0.09706488070422672,0.2105880180499953,0.2990481019642245,0.3275578859009958,0.2850114842114161
102,0.19987121748461686,0.25873501953333483,0.4652817178127875,0.09787672811070977,0.21246444013771948,0.3016183224122578,0.3321170609773804,0.27996427416208675
103,0.19695970755527928,0.2524580750282349,0.4672764881585852,0.09931067696525364,0.21533978727808734,0.30418779152126096,0.3367036280318356,0.2744900855766625
104,0.19390676369732426,0.24761939988230736,0.4675089793624164,0.10130572182890804,0.21915060430851374,0.3066674108432009,0.3412637240371293,0.268613079373768
105,0.19079241204618652,0.24426557884512964,0.4659536637117826,0.10378981583868886,0.22381564272292814,0.3089770400960548,0.34574958590424226,0.26236986572924953
106,0.18770312346186568,0.2424066235578645,0.4626201569788417,0.10668179811372512,0.2292366148852039,0.3110485243696407,0.3501197902137336,0.2558098220115066
107,0.18472926949028792,0.2420168447461335,0.4575525144330898,0.10989345865704273,0.23529932881573776,0.3128282337840578,0.3543391257904171,0.24899481380174895
108,0.18196244356188734,0.2430366690628854,0.4508273171817331,0.11333167251176443,0.2418752447206656,0.31427895202795664,0.3583780472064881,0.2419983402522434
109,0.1794927389656378,0.2453752382623321,0.4425506665997949,0.11690054572738988,0.2488234831555681,0.31538099123663155,0.3622117083859818,0.23490413640789984
110,0.17740606728211933,0.2489136110748494,0.4328543037341637,0.12050353335629638,0.2559932956426173,0.3161324785121983,0.3658186587745017,0.2278042799501352
111,0.17578158206949646,0.25350839902250977,0.4218911205800587,0.12404550517789732,0.2632269857724813,0.3165488314236696,0.3691793634980621,0.2207968782671154
112,0.17468924351175275,0.2589956984264669,0.40983033202691577,0.1274347437785104,0.2703632474714752,0.3166615012322576,0.3722747498200381,0.21398344857219184
113,0.17418753433003525,0.2651952253555732,0.396852550031474,0.1305848632758141,0.2772408696281332,0.3165161122663945,0.3750849771824187,0.20746612757209112
114,0.17432133138517605,0.2719146088222238,0.38314495613398697,0.13341663524930902,0.2837027375982652,0.31617016467997305,0.3775885933375217,0.20134484565852112
115,0.17511995577348954,0.2789538323598852,0.3688967093973574,0.1358596991037756,0.2896000334504437,0.3156904879506397,0.3797621935133636,0.19571458323557508
116,0.17659545483645306,0.286109819510684,0.3542946682869118,0.1378541178901947,0.2947964942645767,0.3151506237083473,0.3815806490179759,0.19066280901453825
117,0.17874119378310646,0.2931811354316877,0.33951946976354874,0.13935172205187976,0.2991725376305621,0.3146282810460348,0.3830179132634056,0.1862671855836522
118,0.18153084487924506,0.299972740943194,0.3247420064610247,0.14031716866802652,0.30262902312340395,0.3142029630578108,0.38404834747504185,0.18259360897217444
119,0.18491786342352728,0.3063007067478533,0.3101203562081481,0.14072864045622666,0.30509041095867884,0.31395382813853445,0.3846484415791159,0.17969462093596245
120,0.18883553584743584,0.3119967848375865,0.295797224721579,0.14057812511277246,0.3065071177731229,0.3139578257538816,0.38479874296658667,0.17760819946245682
121,0.19319767259627946,0.3169127334604702,0.2818979592425125,0.1398712499167727,0.3068569429193825,0.3142881228568018,0.3844857510771091,0.17635690348369373
122,0.19789999348735815,0.3209242832022642,0.2685291849939085,0.13862668280010754,0.30614551370450177,0.31501280622221073,0.3837035068850433,0.17594733123915393
123,0.2028222192572009,0.3239346082314765,0.2557781024891973,0.13687513351625247,0.3044057482314772,0.3161938114342285,0.3824546364124031,0.17636985779925582
124,0.20783084755055564,0.3258771398957166,0.2437124525548223,0.13465799957892874,0.3016963637170729,0.3178860026048685,0.3807507057260059,0.17759864654579474
125,0.21278256022697192,0.3267175429483297,0.2323811124530604,0.1320257155201301,0.29809948885836296,0.32013632258858565,0.378611866557686,0.17959196194319754
126,0.21752818116149986,0.3264546766088374,0.2218152470267995,0.12903588473733255,0.29371748084378396,0.3229829561075954,0.3760658589834389,0.18229282054541526
127,0.22191707585738213,0.32512039751458405,0.2120299156433602,0.12575128882936054,0.2886690869105243,0.3264544776374039,0.3731464841993929,0.18562999910838676
128,0.2258018564500105,0.3227781437944616,0.2030260317132385,0.12223786819070435,0.2830851113865068,0.3305689640207453,0.36989170000399707,0.18951938946825356
129,0.2290432330361022,0.319520359674609,0.1947925818969812,0.11856275208497345,0.2771037593895441,0.335333041554487,0.36634153419673465,0.19386566426441584
130,0.2315148345995676,0.3154649369469162,0.1873090243273118,0.11479239809544968,0.2708658456730597,0.3407408425095625,0.3625360306825332,0.1985642002661503
131,0.2331078027711532,0.3107509171053441,0.18054778442879046,0.110990887782334,0.2645100784980164,0.34677288782236154,0.3585134228976621,0.20350320025705296
132,0.2337349378784911,0.3055337029654705,0.1744767515203466,0.10721841734576464,0.2581686323808746,0.3533949785443341,0.3543086832959588,0.2085659626212433
133,0.2333341640504331,0.2999799981378349,0.16906166690302232,0.10353001552798084,0.25196319940547746,0.36055724318882426,0.3499525448832441,0.21363326302423252
134,0.2318711029220685,0.29426266002741586,0.16426830281843405,0.09997451343458362,0.2460016649942705,0.36819353082475015,0.34547103411393143,0.2185858207513188
135,0.22934061543031714,0.28855562527823003,0.16006435986307674,0.09659378116785708,0.24037550344135955,0.376221344521197,0.3408854929915124,0.22330681632178
136,0.22576726536849576,0.2830290380589785,0.15642104124290065,0.09342223413542143,0.23515793804149784,0.384542469366044,0.3362130143506868,0.22768441404230394
137,0.2212047329048824,0.2778446825106453,0.15331428234279318,0.09048659963888107,0.2304028621323794,0.3930443739318921,0.3314671877643193,0.2316142360703087
138,0.21573424358714072,0.2731518001990281,0.15072562310435114,0.08780592404068925,0.2261444731114165,0.4016023762800719,0.3266590601643064,0.23500173918244366
139,0.2094621025926502,0.26908336254062737,0.1486427179205196,0.08539179264938447,0.222397538822348,0.4100824879404972,0.3217982400493306,0.2377644567104624
140,0.2025164603436181,0.2657528617438525,0.14705949129408755,0.083248728502161,0.2191582028951591,0.4183447990855513,0.316894096265,0.2398340766236681
141,0.19504347644439304,0.2632516806000627,0.1459759639726688,0.08137473426172376,0.2164052419823425,0.4262472514551727,0.3119570098859685,0.2411583251922575
142,0.1872030697665943,0.2616470989504049,0.14539778264198971,0.07976194438151428,0.21410170121839425,0.4336496465217552,0.30699962937878433,0.24170260951192665
143,0.17916443430350196,0.2609809841610399,0.14533548291866927,0.07839736005739148,0.2121968415770838,0.4404177277858328,0.3020380595743897,0.2414513408690299
144,0.17110147374816131,0.26126919020062583,0.14580350844626527,0.07726364401706788,0.21062833416375815,0.44642715223467694,0.2970928903104897,0.2404088216407603
145,0.1631882747600633,0.26250166055590785,0.14681900664681832,0.07633995527077128,0.20932464394853956,0.4515671456747821,0.29218995295194666,0.2385995479187737
146,0.1555947053143601,0.2646432003186697,0.14840042288797356,0.07560280657904637,0.2082075632442164,0.4557436328540918,0.28736070290273563,0.23606777965099976
147,0.14848219807860566,0.26763485529479897,0.1505659129444605,0.0750269291710045,0.2071948682668036,0.4588816479709633,0.28264217308345696,0.2328762713202501
148,0.14199977062100475,0.27139581823451114,0.1533315877491486,0.07458612854266099,0.20620306420661275,0.4609268775498375,0.2780765073648265,0.22910413065733085
149,0.13628034699015534,0.2758257843508128,0.15670960202929907,0.07425411232599159,0.2051501608006892,0.4618462795684074,0.2737101338849697,0.22484386076271706
150,0.13143746605751208,0.2808076991312868,0.1607061068330488,0.0740052688194184,0.20395840117363112,0.4616278380064762,0.2695926643866052,0.22019772500152046
151,0.12756247279972424,0.2862108629823318,0.165319107083594,0.07381537420907547,0.2025568601729581,0.4602796025607702,0.2657756153318344,0.21527364227816204
152,0.12472228091798294,0.2918943591048294,0.17053629942115414,0.07366220696781582,0.20088382508864885,0.4578282020473292,0.2623110505914068,0.2101808627147797
153,0.12295777371074434,0.2977107529352214,0.17633300881002414,0.07352604896620436,0.19888886255705954,0.4543170108552088,0.2592502460756421,0.20502568376294425
154,0.12228288428879056,0.3035099952536625,0.18267037927227114,0.07339005575752039,0.19653446708509234,0.4498041069718662,0.25664246822552306,0.19990744723488246
155,0.1226843716415984,0.3091434648612383,0.18949398671010206,0.07324048452748229,0.19379719546023036,0.4443601145280615,0.2545339374436185,0.19491501958732
156,0.12412228816327905,0.3144681042887199,0.19673302723048813,0.07306677682700054,0.1906682287346996,0.4380660018119714,0.2529670189903053,0.19012391118452532
157,0.12653111972911504,0.3193506119804727,0.20430020434231946,0.07286150324756015,0.1871533629985964,0.4310109068146448,0.2519796545190741,0.18559414158393364
158,0.12982157275036693,0.3236716421808952,0.2120924039271264,0.07262018783140624,0.1832724874135024,0.4232900586217624,0.25160501788472056,0.18136891272384728
159,0.13388298038773816,0.3273299291737325,0.21999220959380555,0.07234103908491002,0.17905864033150984,0.415002839415164,0.2518713474204856,0.177474113522141
160,0.13858629486009014,0.3302462039336857,0.2278702703344543,0.07202461853486959,0.1745567391822142,0.4062510035365173,0.252801881776038,0.17391864556352254
161,0.1437876183259592,0.33236671878647656,0.2355884847652213,0.07167347626815189,0.16982206923679544,0.3971370558864718,0.2544148222982551,0.1706955252211065
162,0.14933219988527824,0.3336661497213381,0.2430039116900238,0.07129177915850705,0.16491860237506406,0.3877627918121075,0.25672326197979645,0.1677836805090108
163,0.15505879437079634,0.33414961599259463,0.2499732583024304,0.07088495378946627,0.15991720618157818,0.3782279999767059,0.25973504064629443,0.16515032489919992
164,0.1608042467506782,0.33385354912606785,0.2563577401513125,0.07045936105889866,0.15489379686111812,0.3686293164352688,0.2634524973386154,0.16275376354089788
165,0.1664081434454437,0.3328451699193039,0.2620280573571012,0.07002201158067994,0.1499274834912183,0.35905919833414546,0.26787210772470593,0.16054647666900768
166,0.17171736582210814,0.331220413368388,0.2668691975326962,0.06958032154066528,0.14509874425718872,0.3496049806992187,0.27298403229579593,0.1584783292748626
167,0.17659038981974198,0.32910028308964145,0.270784765636142,0.06914190013301008,0.14048766775203372,0.3403479992949203,0.2787716465429663,0.15649976515611502
168,0.18090118861316906,0.3266257864569218,0.2737005600281649,0.06871435434253155,0.13617228288240496,0.331362788713021,0.2852111451209972,0.15456484629189338
169,0.18454260426116653,0.3239517520264719,0.27556716868382497,0.06830509726746453,0.1322269884916554,0.3227163758742939,0.2922712928336158,0.15263399525647994
170,0.18742906382994487,0.3212399322433128,0.27636145618194125,0.06792115384978961,0.1287210822664042,0.3144676864382285,0.29991334852998497,0.15067630178340774
171,0.1894985365745561,0.3186518366790725,0.27608693854193656,0.06756896954397103,0.1257173839695018,0.30666707935275817,0.308091135489516,0.14867127593367274
172,0.1907136629113163,0.31634172588933424,0.27477316060682666,0.06725423646236046,0.12327095235490035,0.2993560243772184,0.3167511887432964,0.14660996747825952
173,0.1910620228104511,0.3144501388774068,0.272474260522446,0.06698175379432893,0.12142790492017255,0.2925669296396751,0.32583288421148404,0.14449541332925814
174,0.19055554288199408,0.3130982514060536,0.2692669167885372,0.06675533577384757,0.12022436257136802,0.2863231110346642,0.3352684544245897,0.14234241528454594
175,0.1892290704657128,0.3123832837173548,0.2652478443713102,0.06657777451477369,0.11968555742772738,0.2806388847822068,0.3449828298240993,0.1401766900676873
176,0.18713817669315352,0.3123750979581523,0.26053097100330525,0.06645085949801509,0.11982515772151145,0.2755197666163484,0.35489331301681165,0.13803347416733847
177,0.18435629112517074,0.31311404885109495,0.2552444085156051,0.06637545153791652,0.1206448699702831,0.2709627668635624,0.36490917835197184,0.1359557004293751
178,0.18097131202023686,0.314610081990437,0.24952733625708864,0.06635160600420581,0.1221343684857713,0.2669567654596036,0.3749313632956712,0.13399188014656455
179,0.1770818671227908,0.31684301843093104,0.24352691146659936,0.06637873693712029,0.12427157792578558,0.26348293732521216,0.3848524579283981,0.1321938207354707
180,0.1727934102789734,0.3197639214824519,0.2373952953873715,0.06645581071652043,0.12702330545707738,0.2605151981652765,0.3945571941361347,0.1306142943829965
181,0.16821432771312222,0.32329741037391263,0.2312868392296371,0.06658155554084125,0.13034619599643266,0.2580206697942559,0.4039235918659162,0.12930475798196295
182,0.1634522031666715,0.327344771506129,0.2253554340966141,0.06675467042064387,0.13418797320494316,0.2559602127531366,0.412824851699585,0.12831321366101875
183,0.15861036563489694,0.3317877257564985,0.2197520103251014,0.06697401440452437,0.13848892742034524,0.2542891133809119,0.4211320045832507,0.12768229193737549
184,0.15378482304919133,0.3364927262624796,0.2146221705252735,0.06723875470222,0.14318360812860087,0.2529580186949266,0.4287172428630629,0.12744763206651752
185,0.14906166722827324,0.3413156643175316,0.21010394080958988,0.06754845301198298,0.1482026629324234,0.251914183176196,0.43545775805919296,0.12763662023999955
186,0.14451501563053676,0.3461068511497325,0.2063256153544253,0.06790307368426117,0.15347473842153564,0.2511030426457601,0.4412398084531992,0.1282675235248151
187,0.14020553371510028,0.3507161381099315,0.2034036534160701,0.0683029049273555,0.15892833170966886,0.2504700798483006,0.4459626623121149,0.1293490306432762
188,0.13617955950204366,0.35499804359188963,0.20144057733384424,0.06874839289304507,0.16449346714615776,0.2499629032478028,0.4495420485637161,0.1308801860904238
189,0.13246883053439024,0.3588167620309544,0.20052282854138626,0.06923989610477893,0.1701030805076207,0.2495334270190236,0.4519128222404494,0.1328506833500425
190,0.12909079535084475,0.3620509328548116,0.20071857357658612,0.06977737460477601,0.17569402592165712,0.2491400204122465,0.4530307063567001,0.1352414646554402
191,0.12604947703238534,0.3645980474738657,0.2020755050982051,0.07036003597049749,0.18120766954340212,0.24874949633158355,0.4528731480470117,0.13802555964951566
192,0.12333684027291472,0.3663783700519853,0.2046187314469989,0.07098596852081213,0.18659008195655052,0.24833883300113416,0.4514394548878991,0.1411690875235294
193,0.1209345914043066,0.3673382455234805,0.20834887448210013,0.07165179705691252,0.1917918803436384,0.2478965571062655,0.448750426226969,0.14463234864126098
194,0.11881631689732612,0.3674526759892155,0.21324049920043875,0.07235239533645241,0.19676780377413253,0.2474237469983973,0.4448476804911083,0.14837093899909354
195,0.1169498500205186,0.3667270642388746,0.21924099042526501,0.07308068328721015,0.20147612864352787,0.2469346316873827,0.4397928316527602,0.15233683074340484
196,0.11529975298066275,0.3651980358537905,0.2262699799645959,0.07382752885625303,0.2058780392350742,0.2464567589241583,0.4336666048199152,0.15647937423538155
197,0.11382980736174635,0.3629332518283012,0.23421941504840435,0.07458176542386148,0.20993705995917167,0.2460306812292937,0.4265679177321615,0.16074619130514922
198,0.11250540912226686,0.3600301223697703,0.2429543458131189,0.07533032553814974,0.21361863688171528,0.245709077834484,0.41861290500929865,0.16508394250602948
199,0.11129576403577912,0.3566133444825861,0.2523144951142203,0.07605848167549532,0.2168899298476868,0.2455552255723148,0.40993382200187417,0.16943896168796616
