,timestamp,x,y,z,w
0,1456704054358492,1.5140128277441167e-05,3.510236711409411e-06,1.3028927315765265e-05,1.0278852234978833e-05
1,1456704054374493,8.469901202737407e-05,7.516003683616459e-05,4.377784697722445e-05,2.7094336547419793e-05
2,1456704054397494,0.00014982326564874935,0.00013988339577137305,6.791603163043127e-05,4.633493372116967e-05
3,1456704054420024,0.0002072870634991746,0.00019148820591454517,8.085082954611462e-05,6.984175040043654e-05
4,1456704054434513,0.00025522295439719446,0.00022601808549802777,8.119084883270321e-05,9.799155668948335e-05
5,1456704054457509,0.00029234176241155,0.00024249315303551198,7.136497972937344e-05,0.00012877978081501855
6,1456704054479510,0.0003168343001571305,0.00024277282985167754,5.698309624438311e-05,0.0001576234782648825
7,1456704054519058,0.00032604329803562454,0.00023059694499457205,4.4940736715658564e-05,0.00017843269427408857
8,1456704054521056,0.00031744935774766155,0.00021040760799077014,4.096566976286883e-05,0.00018572444240566816
9,1456704054532524,0.00029044172496188746,0.00018650349637994529,4.7633989617424956e-05,0.00017682809602855926
10,1456704054554526,0.00024768929503134245,0.00016261720096516982,6.3617694788327e-05,0.00015311442022999946
11,1456704054578526,0.00019517484339917236,0.00014171192840538944,8.436581938706297e-05,0.00011969330470640925
12,1456704054592527,0.00014078296440813432,0.00012582265550326217,0.00010393897619548143,8.377112275227596e-05
13,1456704054636540,9.212959172114895e-05,0.00011590078343653793,0.00011737337355247594,5.242984910063658e-05
14,1456704054644541,5.463672919777854e-05,0.00011172478316331617,0.00012266841262466522,3.073680022343862e-05
15,1456704054656542,3.058256548304409e-05,0.00011199971164285956,0.00012143721174475676,2.0771402666462343e-05
16,1456704054674738,1.9274829431569145e-05,0.00011474495773446567,0.00011776140106856321,2.1619614649872792e-05
17,1456704054697666,1.8015411745911756e-05,0.00011791958923913626,0.00011578482535281646,3.0041407767617634e-05
18,1456704054712546,2.335059854556094e-05,0.00012002510832954324,0.00011738755222228951,4.151598137484289e-05
19,1456704054735431,3.216704715247224e-05,0.00012037052359440502,0.00012123552355819495,5.149767202845413e-05
20,1456704054758477,4.233470118651885e-05,0.00011893282516085442,0.0001236485887545551,5.669757319838304e-05
21,1456704054772107,5.274492791409906e-05,0.00011608119162035332,0.0001206976185079996,5.603228502692209e-05
22,1456704054795365,6.280756869949734e-05,0.00011246464038174962,0.00011033128203938434,5.081095969282123e-05
23,1456704054818410,7.176589834349936e-05,0.00010905965757329359,9.341642305550064e-05,4.398609343636939e-05
24,1456704054831619,7.835611627091447e-05,0.00010711149264105796,7.325378641233754e-05,3.8767271819810424e-05
25,1456704054854621,8.112951815750937e-05,0.00010776169731310263,5.397190550502291e-05,3.7239045501574405e-05
26,1456704054877623,7.924706819118765e-05,0.00011144157445383733,3.8718541887735006e-05,3.958797310884368e-05
27,1456704054891623,7.316340159012104e-05,0.000117360323251208,2.8548914619190258e-05,4.419359663265792e-05
28,1456704054915128,6.467527098336064e-05,0.0001234504027794835,2.2456665964702946e-05,4.8430894725980095e-05
29,1456704054937635,5.622903139437877e-05,0.00012692855109884907,1.8380172863757132e-05,4.976929926318042e-05
30,1456704054953637,4.98044488444754e-05,0.00012530792889910497,1.4563548497986934e-05,4.6690477250983824e-05
31,1456704054974638,4.59031020374673e-05,0.00011745599608280605,1.0584642934847853e-05,3.9087433413088005e-05
32,1456704054997639,4.31759946082242e-05,0.0001042648326496793,7.656333213055212e-06,2.81163195912307e-05
33,1456704055013912,3.90281134998946e-05,8.864912230348079e-05,8.205875104789768e-06,1.5770822283173206e-05
34,1456704055034651,3.113344092424953e-05,7.480154948695498e-05,1.4994308712499123e-05,4.505323424234408e-06
35,1456704055064653,1.9335966685726893e-05,6.68644030886117e-05,3.010495744245278e-05,-2.974434937320062e-06
36,1456704055073653,7.128464381316771e-06,6.741814050609662e-05,5.4091179944361774e-05,-3.8875279076717905e-06
37,1456704055094654,1.9024342680092913e-06,7.639343294013508e-05,8.550249352303511e-05,4.257392417244826e-06
38,1456704055118378,1.345072116073854e-05,9.103513268747388e-05,0.00012092993706622562,2.2998148455864036e-05
39,1456704055134384,5.0770168827462966e-05,0.00010721168448780488,0.0001556204819471036,5.2061622172148655e-05
40,1456704055155383,0.00011799067788343873,0.00012167627125922227,0.00018458128254937776,8.86352696728255e-05
41,1456704055178446,0.00021097871447276452,0.00013417743873649792,0.00020391648019258107,0.00012722122272255514
42,1456704055194367,0.0003163898409384709,0.00014808109151971172,0.0002119725932071074,0.00016047704470482438
43,1456704055215171,0.0004143407906791601,0.00016869539937308079,0.00020986322774215176,0.0001811224644705726
44,1456704055238183,0.00048442013048109257,0.00019969319679656567,0.00020121499879389654,0.00018440388984781566
45,1456704055254385,0.000512927098249002,0.00023941882933819933,0.00019135873779748856,0.00017003433481914713
46,1456704055274186,0.0004981047369796058,0.0002795644954821823,0.0001862717049148996,0.00014248743271429916
47,1456704055298187,0.00045081055210379167,0.00030781027053934326,0.00019126479682166897,0.00010933155655548231
48,1456704055314187,0.00039035593933612575,0.0003136343888522369,0.000209249574528767,7.848176396887569e-05
49,1456704055334200,0.0003375448925119989,0.0002941657341738786,0.00023889430830049607,5.583974032868072e-05
50,1456704055358201,0.00030791091074998384,0.00025653841377798226,0.00027369009696052516,4.433961728593087e-05
51,1456704055374203,0.00030773559225797623,0.00021518312775800256,0.0003030260937244081,4.4450987245177904e-05
52,1456704055394203,0.00033405689428508246,0.00018548837311554406,0.0003155238904733912,5.544527410341957e-05
53,1456704055418224,0.00037793135517513076,0.00017727325801940487,0.00030363964337493414,7.64745328699206e-05
54,1456704055434232,0.00042864666570528997,0.00019138690108988455,0.00026765454639374946,0.00010673668183676052
55,1456704055454234,0.0004765468315635396,0.00022080266295336083,0.000217113125058627,0.00014463883267055026
56,1456704055478234,0.00051364349241602,0.00025508577543911185,0.0001686735634690911,0.00018660374621293468
57,1456704055500236,0.0005329635781917531,0.00028547535727843436,0.00014092184539802027,0.00022651600197881965
58,1456704055514236,0.0005283497605393189,0.0003078748478686512,0.00014818885016204477,0.00025655850377001663
59,1456704055537253,0.0004958290761368391,0.0003226438423528764,0.00019591138354101292,0.00026949474255820194
60,1456704055559255,0.0004361801171359251,0.0003321809930387761,0.0002793016562891677,0.0002615975646882997
61,1456704055574371,0.00035695988031869767,0.00033853558646875404,0.00038555088554551514,0.0002347975304335484
62,1456704055597257,0.000272115301614044,0.00034279774375604215,0.0004983084943653157,0.0001967121561357983
63,1456704055619769,0.0001987594455168006,0.00034611467889735626,0.0006023265693641228,0.00015820825103647791
64,1456704055635284,0.00015261077096575558,0.00035057019535086886,0.0006862785685810707,0.0001294919177553478
65,1456704055658290,0.0001442026506102427,0.0003585216739196056,0.0007429798303909,0.00011649140442005091
66,1456704055680287,0.00017680050437799755,0.00037089074622772156,0.0007680092529493157,0.00011908382839720035
67,1456704055695288,0.00024548277722059885,0.0003861111198693465,0.0007587614782686103,0.00013182751453065443
68,1456704055718808,0.0003368135957008452,0.00040067955657053204,0.0007153169049276114,0.00014677955371256675
69,1456704055740370,0.00042991458022113345,0.00041064278785699873,0.0006427131623547978,0.0001570871977514914
70,1456704055762316,0.0005005081552529961,0.00041266564802083577,0.0005527040329102628,0.00015974863619231766
71,1456704055778371,0.0005279798822256949,0.0004040439955877699,0.0004629447773443036,0.00015642930577082042
72,1456704055800370,0.0005027305884394206,0.00038226863746730383,0.0003927599323163968,0.00015215362520590032
73,1456704055816381,0.0004299793867618488,0.00034528806538756333,0.00035662298348176994,0.00015256488579436133
74,1456704055838485,0.0003280893133641435,0.00029293169688806165,0.00035833516263511907,0.00016101587277749367
75,1456704055860492,0.0002226082110272402,0.0002287363728062267,0.00038945104847004403,0.00017686006675384552
76,1456704055875336,0.00013895311083140442,0.00016090552931209595,0.00043379251640235426,0.000195764405296657
77,1456704055899337,9.639561610860034e-05,0.00010172746474632127,0.00047641221550395003,0.0002117960579874522
78,1456704055920352,0.00010470886073974714,6.568734083625741e-05,0.0005123248768271642,0.00022009102432459893
79,1456704055935366,0.0001634320355507308,6.682233458955179e-05,0.0005499879182493095,0.00021878977683795068
80,1456704055958362,0.0002628273284330302,0.00011562718426196725,0.000607265341409851,0.00020964508463690412
81,1456704055979364,0.0003857619781540058,0.00021572845485546443,0.0007016925996644902,0.00019747043495339998
82,1456704055995393,0.000510641136531824,0.0003610051210833283,0.0008398029555346582,0.00018873209239162042
83,1456704056027222,0.000615848262242794,0.0005344600773673955,0.001010588522347573,0.00018943300621461666
84,1456704056039707,0.0006850415749965193,0.0007101638496206011,0.0011860623354873051,0.00020271356206285802
85,1456704056055505,0.0007111223787991987,0.0008585188048809333,0.0013287648621090468,0.00022715270301824355
86,1456704056078507,0.0006968233426569921,0.0009532881027607277,0.0014034154231593499,0.0002567232888932999
87,1456704056102509,0.0006520255543158349,0.0009775934951287174,0.0013885197301356659,0.0002825146447166437
88,1456704056116035,0.000589934404440007,0.0009267574400853203,0.0012836924248406482,0.0002955078302919402
89,1456704056138617,0.0005243338026227794,0.0008081920849847301,0.001109758398798841,0.00028951309984735416
90,1456704056160618,0.0004688545956449069,0.0006403534170341517,0.0009014638548467305,0.00026348409911430083
91,1456704056176619,0.0004376645785422468,0.0004522267666798561,0.0006961406297041956,0.00022236578089548023
92,1456704056198620,0.00044562485483034235,0.0002825416940721114,0.0005237737955866498,0.00017580807838734607
93,1456704056220220,0.0005056651522360927,0.0001763515143214858,0.00040261991672484475,0.00013494060145465025
94,1456704056235437,0.0006229811947715664,0.0001772726340100635,0.0003405596356762134,0.00010846082576155165
95,1456704056258437,0.0007886740931850013,0.0003159257154816723,0.0003390152599650286,9.965180427858005e-05
96,1456704056279438,0.0009770616931604529,0.0005974751233754871,0.00039588150741733287,0.00010545733935599916
97,1456704056295473,0.0011497967002637097,0.0009927643232004121,0.0005058893957656361,0.00011793035055589866
98,1456704056319244,0.0012669117812091012,0.0014378453981604576,0.0006591029265782786,0.0001276444523270326
99,1456704056340474,0.0013014817863200722,0.0018450029222253639,0.0008394578198027844,0.00012808550844811228
100,1456704056356255,0.0012523008516673938,0.0021246132248213465,0.0010250601135206212,0.0001196620205661284
101,1456704056378396,0.0011491385692253965,0.002212439465550134,0.0011907946421197356,0.00011185945816185401
102,1456704056402397,0.0010477629065956354,0.0020930374221041206,0.0013125431476467505,0.00012217913691559432
103,1456704056416152,0.0010153792490062321,0.0018090560176207832,0.0013716977681352011,0.0001710061134134493
104,1456704056453418,0.0011098278255165116,0.0014502324121564798,0.0013587491431043164,0.0002729602023192771
105,1456704056461416,0.0013577475952491632,0.0011243479126917387,0.0012751927744126914,0.0004276050847378303
106,1456704056476417,0.0017387060503782571,0.0009213547747496524,0.0011335339197819981,0.0006142398030623536
107,1456704056498421,0.002183177492942292,0.0008856688563291257,0.0009556553956856236,0.0007949120298532192
108,1456704056521937,0.0025891907099652293,0.001007260269078876,0.0007701246012155662,0.0009261715426512066
109,1456704056542454,0.0028541130484867334,0.0012324357008282633,0.000608888769941818,0.0009751922739043568
110,1456704056559447,0.002908980213020038,0.0014866628528889792,0.0005031694996388138,0.0009328676635144663
111,1456704056581449,0.0027403906976992787,0.0016990615919589525,0.0004779147975773052,0.000817499898884752
112,1456704056595464,0.002391298193464607,0.0018206759670466037,0.0005449355255952281,0.0006672599815470878
113,1456704056619012,0.0019420262147320662,0.0018328050166858123,0.0006967429311477311,0.0005250264346684
114,1456704056641483,0.0014806954322154444,0.0017452164533635498,0.0009044452558077462,0.00042267475024714105
115,1456704056655484,0.0010757043823291898,0.0015870739974598346,0.001122260419537575,0.0003718090535883969
116,1456704056678485,0.0007613615960882788,0.0013957039163844064,0.0012984035565138002,0.00036438640688740557
117,1456704056701486,0.0005409747486323676,0.001207833597809961,0.001388989583012488,0.00038150099395938377
118,1456704056724007,0.0004021800768283509,0.001054040029862611,0.0013700001334275714,0.00040468924446033345
119,1456704056738508,0.00033309823540609467,0.0009538724257155366,0.0012431425945848866,0.00042372241169110283
120,1456704056761509,0.0003296509819434571,0.0009106243216578589,0.001033960776203934,0.00043787980378459787
121,1456704056782550,0.00039212545925304554,0.0009088689336511298,0.0007833538919179597,0.00045180824571300555
122,1456704056798511,0.0005162246681993961,0.0009187694688247365,0.0005355891476272226,0.0004695625182154949
123,1456704056822031,0.0006857662089862222,0.0009072747777118287,0.00032669809241209793,0.0004903177794815162
124,1456704056843007,0.0008714778838351941,0.0008516346022304452,0.00017686536976376836,0.0005075675124079671
125,1456704056858945,0.0010363045668958597,0.000749033952437367,8.895083540662648e-05,0.0005117555224892853
126,1456704056881734,0.0011447989248268508,0.0006178519516313826,5.284719341025193e-05,0.0004948749423885253
127,1456704056903011,0.0011731710566067156,0.0004897680078122214,5.295040634848438e-05,0.0004548495807150743
128,1456704056919486,0.0011168424837277753,0.0003962754576934456,7.498114981933517e-05,0.00039771246605738554
129,1456704056941758,0.000993017276095818,0.0003560330661447352,0.0001094686743855141,0.0003365790070659383
130,1456704056962761,0.0008365916199339371,0.00036881995659184924,0.0001516546747954823,0.0002876424035426193
131,1456704056978779,0.0006893244829745143,0.00041794130956693173,0.00019957913712346804,0.0002644857976180962
132,1456704057008762,0.0005851171066196315,0.00047857311737613625,0.0002523322868126214,0.00027279257213277014
133,1456704057022771,0.0005373298824143699,0.0005274468467349352,0.00030921081789009146,0.00030774038812285485
134,1456704057038778,0.0005345493358655324,0.0005499331013378881,0.0003692951241329116,0.00035547045398254354
135,1456704057061780,0.0005474591038572262,0.0005426175503043658,0.00043084176972785936,0.0003981535123589754
136,1456704057082781,0.0005433797386304028,0.00051143298800224,0.0004905598520852908,0.0004204051852683378
137,1456704057099019,0.0005008992567283342,0.00046682328469606544,0.0005432956077884957,0.00041424365571961756
138,1456704057122237,0.00041764737486010974,0.00041826663522387517,0.0005824346952456566,0.00038068505836934155
139,1456704057142329,0.00030880112784482765,0.0003705636310770157,0.0006008817537228506,0.0003278408754524984
140,1456704057158192,0.0001989393437081061,0.0003233556876930567,0.0005923920100486389,0.0002669977026207121
141,1456704057180193,0.00011228242073379185,0.00027367325571117825,0.0005533198165849311,0.00020872735722928228
142,1456704057202199,6.543635241143947e-05,0.00021977485710423226,0.0004849041899531508,0.00016043493577662775
143,1456704057218709,6.414113957279246e-05,0.00016400791640746858,0.00039553338074843446,0.00012559878349700348
144,1456704057240227,0.00010339541238399571,0.00011319258757832934,0.00030142736840387257,0.00010418093759122342
145,1456704057262387,0.00016970202282452133,7.653808045468025e-05,0.0002240354327006133,9.362197021114736e-05
146,1456704057279228,0.00024463078198546105,6.231425627297395e-05,0.00018392894654146823,9.013468719080396e-05
147,1456704057301350,0.00030934357922453147,7.476312340750899e-05,0.00019334647140034517,9.014483774181961e-05
148,1456704057323185,0.0003493947823921205,0.00011226253548893121,0.00025099357675807546,9.154431710914091e-05
149,1456704057339384,0.0003583270273972752,0.0001671991096652222,0.0003419115691170161,9.425629185497136e-05
150,1456704057361149,0.00033853147249955753,0.0002276357152851948,0.00044261107490072303,9.98110431797017e-05
151,1456704057384351,0.0002990922102669975,0.0002804200475247659,0.0005289705679742393,0.00011010372129237881
152,1456704057399353,0.00025187780821315787,0.00031475761290925447,0.0005833231785741027,0.0001258796526493597
153,1456704057428859,0.00020761994986467255,0.0003249132971954424,0.0005981346885005612,0.00014560725989738797
154,1456704057443362,0.00017310755930161466,0.00031112186673049806,0.0005757414723162483,0.0001653164878469177
155,1456704057458363,0.00014996168919909067,0.0002787477360264306,0.0005253209265441744,0.0001796586558742589
156,1456704057481365,0.0001352488120775504,0.0002364013736399976,0.0004588567234034762,0.00018385394176334362
157,1456704057504377,0.00012397440198611624,0.00019368583091587598,0.00038759050444104226,0.00017568029397866216
158,1456704057519155,0.00011282751448628075,0.0001589503411097668,0.00031988499173405316,0.00015664878560880537
159,1456704057540989,0.00010364855342746367,0.00013739029363749763,0.00026079647839544846,0.00013192435947459127
160,1456704057563990,0.00010464379250689013,0.00012998555702267348,0.00021298648245770933,0.0001089722599559596
161,1456704057579131,0.0001280193264817429,0.00013370836586903544,0.00017807124288934085,9.522380434680908e-05
162,1456704057601256,0.00018446137978928446,0.00014298232234984107,0.00015744694626224342,9.541783545782504e-05
163,1456704057624356,0.00027677352677291084,0.00015178901285821996,0.0001521687297944715,0.00010958536248197052
164,1456704057639000,0.0003957235085473895,0.00015554329045679524,0.00016225000741374067,0.0001325558809339329
165,1456704057661003,0.0005203185013447451,0.0001521197994617162,0.00018615601425004655,0.00015530530113432535
166,1456704057684003,0.0006229579036196551,0.0001420254348328624,0.00022099453078138962,0.0001677854537746401
167,1456704057699040,0.000678139571426817,0.00012817159410239695,0.00026328375416280784,0.00016242782002689427
168,1456704057721030,0.000672104292599228,0.00011553902698007142,0.0003097293992429492,0.00013735354972672573
169,1456704057744038,0.0006101358907056095,0.00011037652467534523,0.0003573999658444484,9.832528421783483e-05
170,1456704057765044,0.0005184807074512604,0.00011826566121860531,0.00040303421285600667,5.860510430491993e-05
171,1456704057781050,0.0004393178782832423,0.00014109547123902644,0.0004418892840230595,3.625490486155068e-05
172,1456704057804041,0.0004195371528175895,0.00017433680997914122,0.00046724640684635136,4.913058846637395e-05
173,1456704057819103,0.0004961702438416082,0.00020678362975876338,0.0004717459781911892,0.00010874198132498168
174,1456704057841086,0.0006824185322076774,0.0002242019149797784,0.00045064581145394625,0.00021493242118740576
175,1456704057864087,0.0009586853760544139,0.00021617504926793403,0.0004054837127318089,0.00035362809762535624
176,1456704057885117,0.0012731583022264504,0.00018302837999062098,0.0003459142149239789,0.0004993807873652365
177,1456704057901301,0.0015548722711885498,0.00013879911196245786,0.0002884356621874551,0.0006228003917404467
178,1456704057924298,0.0017371169634428866,0.00010781029822651911,0.00025242912235653894,0.0007005547482408829
179,1456704057944843,0.0017822653587521449,0.0001156768767289579,0.0002548713939740737,0.0007236742311564502
180,1456704057961555,0.0016958768358863738,0.00017847116102216463,0.00030491334497865,0.0006999626673770172
181,1456704057984558,0.0015220808167580593,0.00029481789533817687,0.0003992888579021658,0.0006489075205170205
182,1456704058004784,0.0013220655712572146,0.00044462469091710696,0.0005201083841579786,0.0005915131415921873
183,1456704058021115,0.001146933200691675,0.0005953956142830508,0.0006372475897627285,0.0005405990121956399
184,1456704058043805,0.001019079988148904,0.0007136112546802006,0.0007165145699096085,0.0004969382320381217
185,1456704058064807,0.000930451304351283,0.0007762925033927474,0.0007315794461928955,0.0004527766193818048
186,1456704058080808,0.0008554755185294378,0.0007779930552158076,0.0006743445198616983,0.00039947426268222903
187,1456704058118023,0.0007688193752877685,0.0007306376508006665,0.0005581163046066509,0.0003339878525725599
188,1456704058125292,0.0006579964909709969,0.0006566092645679613,0.000411663882941924,0.0002607731069720001
189,1456704058140752,0.0005264187529709346,0.0005785780693307688,0.0002675521090842508,0.0001892007312600447
190,1456704058163754,0.00038858612266499834,0.0005113661968336736,0.00015103141696967766,0.00012898856229059377
191,1456704058185037,0.00026225966096165025,0.00045961962205336626,7.43541504022624e-05,8.645059086366256e-05
192,1456704058200756,0.00016208169586699706,0.00042076498241533166,3.735867873017196e-05,6.310859809810802e-05
193,1456704058224364,9.657862060200704e-05,0.0003895018889974266,3.181877947586885e-05,5.6533038872692116e-05
194,1456704058244857,6.793673258480882e-05,0.0003606730838433465,4.6319038817966346e-05,6.221327503310761e-05
195,1456704058260853,7.291270725514763e-05,0.000330195712806565,6.975028930518447e-05,7.522729071298377e-05
196,1456704058283853,0.0001037702670736975,0.0002953955186255993,9.318658542846189e-05,9.1136636701906e-05
197,1456704058306878,0.00014920754092706678,0.0002555010380583328,0.00011070521898383591,0.00010621532537953309
198,1456704058321154,0.00019588652460354177,0.00021189214881451714,0.00011958013382460762,0.00011742889424209963
199,1456704058343663,0.00023103227912112356,0.00016753393692418866,0.00011987675537614617,0.00012251084730148388
200,1456704058366664,0.0002457905978841042,0.00012576027915988964,0.00011344244821409517,0.00012025811069025861
201,1456704058388664,0.0002381118375438606,8.918702162660968e-05,0.00010264377686225688,0.00011094837132136918
202,1456704058403665,0.00021355608985441048,5.936988642802623e-05,8.945556418162151e-05,9.660388687431976e-05
203,1456704058426961,0.00018311448373056673,3.712517372399401e-05,7.531360517628837e-05,8.07712985970611e-05
204,1456704058440281,0.00015869442833799303,2.295742547815392e-05,6.161701021590697e-05,6.766297831099495e-05
205,1456704058464282,0.0001483030790593547,1.7147703835527645e-05,5.02771853899777e-05,6.083805207501214e-05
206,1456704058486402,0.00015317388185060745,1.9453540691825546e-05,4.364743056514712e-05,6.189411528336398e-05
207,1456704058500404,0.00016796618184712647,2.8667275563852927e-05,4.3649733864853674e-05,6.973582222659853e-05
208,1456704058524075,0.00018353114209033745,4.237829540665576e-05,5.058821252573472e-05,8.079693930564996e-05
209,1456704058546378,0.00019069120910723621,5.722741894798631e-05,6.246894881032105e-05,9.019252261013492e-05
210,1456704058560402,0.00018351514249974506,6.972233172377687e-05,7.540371111502629e-05,9.340445357472414e-05
211,1456704058583380,0.00016122118232155376,7.7341045096627e-05,8.503529601702635e-05,8.792008347037295e-05
212,1456704058606397,0.00012843436146543904,7.939726920065111e-05,8.828905583893623e-05,7.425682826554301e-05
213,1456704058620673,9.394188140061477e-05,7.721750966775361e-05,8.453803143383306e-05,5.600798056094432e-05
214,1456704058643485,6.846601005522528e-05,7.354722455469909e-05,7.561729889472358e-05,3.8895223173285956e-05
215,1456704058666486,6.21433295130797e-05,7.144895579567595e-05,6.4794421531423e-05,2.914109196957657e-05
216,1456704058680494,8.219794549625064e-05,7.308516522623869e-05,5.53485378817909e-05,3.1636459409570295e-05
217,1456704058703487,0.00013099862398241772,7.880052291239655e-05,4.951090645412722e-05,4.8408249298219277e-05
218,1456704058727345,0.0002046612537035495,8.691182051726235e-05,4.819561933922188e-05,7.784916646977586e-05
219,1456704058740576,0.00029257508503815024,9.442113972275955e-05,5.148545755133093e-05,0.0001149895127576247
220,1456704058763578,0.0003784227160209603,9.842602520624915e-05,5.948075936913202e-05,0.00015273760288887807
221,1456704058786579,0.00044317691984383195,9.759194415018996e-05,7.293855336289515e-05,0.0001836572446317886
222,1456704058807585,0.00046995360519660334,9.298975540495655e-05,9.318939050777318e-05,0.00020171304869117328
223,1456704058824119,0.0004494750154008101,8.787137696122187e-05,0.00012120711455432007,0.0002035202298977911
224,1456704058846613,0.0003839377838845585,8.636999461888943e-05,0.00015627587721367907,0.00018884870977220277
225,1456704058867613,0.0002873703564660769,9.156833141765614e-05,0.00019506839020603557,0.00016040276327399427
226,1456704058883650,0.00018229069010466332,0.00010376936544315711,0.00023185987178265808,0.00012320551163660462
227,1456704058906651,9.430089736234542e-05,0.0001198619430302045,0.0002600749992159232,8.401412642019709e-05
228,1456704058928122,4.6662986961497583e-05,0.00013422470780502738,0.00027461522930389784,5.083854066210902e-05
229,1456704058943677,5.58816710294238e-05,0.0001408787226024112,0.0002738544836000169,3.2125256775929914e-05
230,1456704058966643,0.0001281746514337692,0.00013605951675104636,0.0002602988741636245,3.51275252539127e-05
231,1456704058987889,0.000256602397436108,0.00012028761090958408,0.000239723574918229,6.358161720410908e-05
232,1456704059003840,0.000419703118021257,9.918215058881118e-05,0.00021949122551110725,0.00011554476871146792
233,1456704059027388,0.0005836797255139707,8.243961960213005e-05,0.00020694847728288223,0.00018255542531634032
234,1456704059047982,0.0007098100396703234,8.076014241838342e-05,0.00020821395015589814,0.0002509579163600033
235,1456704059063983,0.0007661342813898489,0.00010135256308815723,0.00022705616849897817,0.0003053975151311889
236,1456704059094246,0.0007392393989871433,0.00014373288519961753,0.0002636241056548025,0.00033346196136494453
237,1456704059107983,0.000640739078552347,0.0001980588723917811,0.0003134027204351019,0.000329768887247946
238,1456704059124309,0.0005049209811388832,0.00024757909317781095,0.0003672287553884429,0.00029793166987372813
239,1456704059145960,0.0003777842637208455,0.00027491407216225297,0.00041309169921216064,0.0002496860904050712
240,1456704059168082,0.0003013153916644741,0.00026966207657599554,0.00043976781730822737,0.00020146956292755745
241,1456704059184192,0.0002989811378263902,0.00023371973845740174,0.00044123386904894795,0.000169490400960127
242,1456704059206194,0.00036830619816776436,0.00018170188658008128,0.0004197363374577983,0.00016478326348869237
243,1456704059228448,0.0004836961275180338,0.0001362422781762059,0.0003853556599189173,0.00018993627403342982
244,1456704059244035,0.0006081269086420605,0.00012011349550000835,0.00035163451323258466,0.00023882808101450683
245,1456704059266038,0.0007082098976536365,0.00014810428099399923,0.00032952321616159245,0.0002995747987627326
246,1456704059289304,0.0007658754826539774,0.0002215224904582443,0.00032337203604093423,0.000359349636488764
247,1456704059304306,0.0007821251620232156,0.0003272836306148379,0.00033141211289427244,0.0004088030827344946
248,1456704059326060,0.00077234818842366,0.00044194716978743047,0.000349845939632781,0.0004441251555516346
249,1456704059348370,0.0007562824807241939,0.0005392138316355219,0.0003768795981065372,0.00046606820703216033
250,1456704059363371,0.0007476425589892068,0.00059807369319381,0.0004130630882032203,0.0004768103188771788
251,1456704059386424,0.0007485101511766147,0.000608754126637537,0.00045738337612190506,0.00047678777865796395
252,1456704059408370,0.0007512815821067777,0.0005749185620675867,0.000502492316060488,0.00046380173461624003
253,1456704059424304,0.0007462925069771126,0.0005121218958622785,0.0005339506622977929,0.0004351567718583043
254,1456704059445357,0.0007289433410011037,0.0004431830420435902,0.0005356705008080075,0.0003910466018683914
255,1456704059468357,0.0007006125445114008,0.00039126779848529264,0.000498737746239786,0.0003361686802938123
256,1456704059483358,0.0006635500463697263,0.00037220151051834164,0.00042779409272629675,0.00027811576228497066
257,1456704059505359,0.0006158248392639651,0.00038866143645120466,0.00034070658169474763,0.000223961853490879
258,1456704059530156,0.000552132354777348,0.0004290903516350696,0.00026174500245030886,0.00017772209811791175
259,1456704059543163,0.0004701776201709096,0.0004725496739956258,0.00021221479440372722,0.0001401143595053889
260,1456704059565165,0.00037681596327089953,0.0004977106324360486,0.00020319262281268068,0.00011002988043808179
261,1456704059588335,0.00028839658800094124,0.0004915508482904707,0.00023302343462039857,8.62807650438097e-05
262,1456704059603365,0.00022473742013139075,0.00045330610298153964,0.00028939147228323445,6.867866815499763e-05
263,1456704059625693,0.00020068660730310588,0.00039229970192080927,0.0003539377700834484,5.8194489644442334e-05
264,1456704059649737,0.00021992988389005176,0.00032209409740248114,0.0004073451944592159,5.623017742737639e-05
265,1456704059663702,0.0002734333595293979,0.0002549447970143821,0.0004338274968473742,6.325534064120203e-05
266,1456704059686006,0.0003423259841953886,0.0001990686221225444,0.000424695270277464,7.74920736154257e-05
267,1456704059709704,0.00040369790294131976,0.000158604603723893,0.0003805708713748264,9.455299395992081e-05
268,1456704059723995,0.00043754001355860464,0.00013454478851751382,0.0003114495939609867,0.00010852643603765993
269,1456704059745504,0.0004329207029934144,0.00012519267901635312,0.00023399493853687065,0.00011414736900183589
270,1456704059768505,0.0003912288694259881,0.00012614191907294402,0.0001664622657119848,0.00010895948777269281
271,1456704059789797,0.0003248523576720598,0.00013081652698750663,0.00012292013041875655,9.42712932605823e-05
272,1456704059805507,0.0002517130260696196,0.00013227260473560397,0.00010905004973722468,7.439742867405529e-05
273,1456704059828801,0.0001884821134985814,0.00012570123433487814,0.00012117909930737684,5.472844034155896e-05
274,1456704059850099,0.0001458974156119508,0.00011026280286764023,0.0001486523793886502,3.978786377563056e-05
275,1456704059866100,0.0001277813564041518,8.92517892384556e-05,0.00017817956987180666,3.2192596380299345e-05
276,1456704059890101,0.00013276569930946843,6.859045543539509e-05,0.00019824155925089878,3.2653530478506276e-05
277,1456704059912101,0.00015644475730247352,5.439126139232673e-05,0.0002020998847826118,4.048276655481899e-05
278,1456704059926114,0.00019237813914102614,5.05505709245279e-05,0.0001888438792494287,5.395071359544174e-05
279,1456704059949124,0.00023209953648273293,5.7232078291521165e-05,0.00016263298569150906,7.028200819208842e-05
280,1456704059969126,0.00026546967335869904,7.07865974351122e-05,0.0001306654734459976,8.567505401609445e-05
281,1456704059985126,0.0002824318622069445,8.515373630466882e-05,0.00010057691652302384,9.589573058536277e-05
282,1456704060009138,0.0002759192516576377,9.420631512250539e-05,7.804240447557213e-05,9.753071718060575e-05
283,1456704060029648,0.0002444944665315216,9.406039486393809e-05,6.527796738217125e-05,8.930921393500762e-05
284,1456704060045158,0.00019316064946126222,8.43323106422704e-05,6.0860688973951916e-05,7.266441462594262e-05
285,1456704060069258,0.00013177174787753625,6.77925473301211e-05,6.0841884943168795e-05,5.115962902390444e-05
286,1456704060090260,7.19019683018312e-05,4.868631892270287e-05,6.06389928946776e-05,2.915731935757527e-05
287,1456704060106291,2.3845823870198422e-05,3.0718463396023485e-05,5.6892641909392885e-05,1.0526251408088084e-05
288,1456704060129118,-4.971866685525993e-06,1.585956735122409e-05,4.8564999999173486e-05,-2.000824117951982e-06
289,1456704060149575,-1.0055669769829514e-05,4.613921451294249e-06,3.6983301779808006e-05,-6.726304482268751e-06
290,1456704060165574,1.0796238348933619e-05,-2.455971268681543e-06,2.5016302365227375e-05,-2.493766786136467e-06
291,1456704060188575,5.783461730212922e-05,-2.8703577934599526e-06,1.585195200830638e-05,1.1703045269264167e-05
292,1456704060211576,0.00012896655816660012,8.734885688317629e-06,1.1857798151288046e-05,3.665676676939707e-05
293,1456704060225906,0.0002189120640845724,3.968799442185753e-05,1.384603631598727e-05,7.236949227525016e-05
294,1456704060248379,0.0003185743496398634,9.625321618599162e-05,2.0871750099833996e-05,0.00011716226863882633
295,1456704060272382,0.0004151956862764503,0.0001793957605789265,3.055347663349456e-05,0.0001668233429543975
296,1456704060285380,0.0004936595341535224,0.000281267162062006,3.981281800840225e-05,0.00021427846318744362
297,1456704060308381,0.0005392325993972605,0.0003847122326468299,4.5837421057920906e-05,0.00025039082786726586
298,1456704060331687,0.0005417677404108054,0.0004673089737628871,4.699741799798594e-05,0.000266335688533203
299,1456704060345980,0.0005004608636735105,0.0005093300351108114,4.3473066904188355e-05,0.00025722793244930907
300,1456704060369211,0.0004270722667962665,0.0005023310859433815,3.7487559858502605e-05,0.00022554874548427943
301,1456704060392252,0.0003452559681621485,0.0004537150287732526,3.313721294762204e-05,0.00018231698506339923
302,1456704060406249,0.00028499840880175136,0.00038425251023760853,3.575904418825862e-05,0.0001446549102983139
303,1456704060428755,0.00027348811606358974,0.00031958079207386887,5.0728484868477216e-05,0.00013018781252167042
304,1456704060451941,0.0003255752517147881,0.0002802563198261908,8.179993159230108e-05,0.00015048073098921735
305,1456704060466205,0.00043744381351347575,0.0002753592726695388,0.00012952882288944903,0.00020637133552648475
306,1456704060489206,0.0005862438134344052,0.00030198130388257025,0.00019054254247818206,0.00028728349074651135
307,1456704060512207,0.0007364860252607834,0.00034945238956113675,0.0002581840217842618,0.00037485293406870407
308,1456704060526303,0.0008513733172888726,0.0004051145817584924,0.0003244474704105049,0.00044933578226607335
309,1456704060548927,0.0009050589047477805,0.0004585901568296314,0.0003824838863496481,0.0004962083030938897
310,1456704060571895,0.0008914277105607139,0.0005031966142060519,0.00042861719147072773,0.0005105566236916366
311,1456704060586159,0.0008264021783113039,0.0005351344822847301,0.000462980428540316,0.0004979402724291724
312,1456704060609162,0.0007428003258830676,0.0005521548961515548,0.0004884598929604103,0.0004716162123213794
313,1456704060632222,0.0006788378098109682,0.0005531955853140887,0.0005083755462412283,0.0004469930920707653
314,1456704060645846,0.000663744826695146,0.0005393763461867748,0.0005240105644645443,0.00043515712555634937
315,1456704060668870,0.0007061378183718774,0.0005155853371024456,0.0005333458109084979,0.00043813548139196105
316,1456704060692115,0.0007907608377007941,0.0004913116523838129,0.0005317507874961969,0.000448309875847645
317,1456704060712849,0.0008855239479350417,0.0004795590673820745,0.0005142565426425318,0.00045243619358888
318,1456704060729145,0.0009550932881665267,0.0004934142242794232,0.0004782790105369655,0.0004381047309088874
319,1456704060760031,0.0009739319282370804,0.0005408349187847583,0.00042558512916116573,0.000399240576920597
320,1456704060773032,0.0009333047820284327,0.000619317331316376,0.00036259278310128717,0.00033824903531026425
321,1456704060789253,0.0008413480799729645,0.0007131813725199302,0.0002987119026222176,0.00026452715270818564
322,1456704060812253,0.0007186057359702799,0.0007963617070499585,0.0002433800918110414,0.0001906774500715325
323,1456704060833015,0.0005915685324050013,0.0008413008324485993,0.00020317791293354202,0.0001282534087703721
324,1456704060848969,0.00048545055729052846,0.0008302649752348919,0.00018027700966559326,8.453630405178371e-05
325,1456704060871970,0.00041717450973509785,0.0007626703936024925,0.0001725730015575774,6.118070799962408e-05
326,1456704060893272,0.0003904936646771543,0.0006539765662604198,0.00017497317848183378,5.485661705085708e-05
327,1456704060908972,0.0003954897403341682,0.0005272821189480433,0.00018107383522685262,5.934455200976888e-05
328,1456704060931999,0.0004131540500993036,0.00040340498933819703,0.0001847596637355818,6.80587771135963e-05
329,1456704060953008,0.00042332729688612135,0.0002952961444164859,0.00018155344234810442,7.598965889888257e-05
330,1456704060969007,0.0004126905015485201,0.0002085635266687284,0.00016953859844265424,8.061161421334198e-05
331,1456704060991017,0.00037951892429801965,0.00014541255954931805,0.0001495509198278572,8.191290722831806e-05
332,1456704061013009,0.00033331262405987837,0.00010785753878578353,0.00012448120842444485,8.187875556025526e-05
333,1456704061035021,0.00028971548992746856,9.791241725961903e-05,9.800758610469142e-05,8.359912142728915e-05
334,1456704061051042,0.000263352414004586,0.00011535220715232752,7.341722754575197e-05,9.010087919693457e-05
335,1456704061073050,0.0002619733348540892,0.00015528535796612114,5.2983878123396064e-05,0.00010314196900290115
336,1456704061089043,0.0002841394542940634,0.00020755657314631043,3.78818730218449e-05,0.00012234159153578253
337,1456704061111044,0.0003206742402428468,0.0002586329062166238,2.8360797932601625e-05,0.00014499101155569203
338,1456704061133198,0.0003585681196179507,0.00029519157786660335,2.4003268618536886e-05,0.00016668922125862658
339,1456704061148266,0.00038546352003374903,0.00030785652696044535,2.406265996244643e-05,0.00018263651347529198
340,1456704061170267,0.00039310972185268884,0.0002936196773854061,2.788111195522065e-05,0.00018912966249906582
341,1456704061195268,0.0003789747379972469,0.000256200387105348,3.523219819704861e-05,0.0001847217967751741
342,1456704061208270,0.0003460863669881019,0.0002044683586870997,4.631026569609401e-05,0.00017068943845434116
343,1456704061230652,0.00030162710106524087,0.00014964843772201722,6.119408147817671e-05,0.00015071071119547884
344,1456704061254160,0.0002547559394780332,0.00010224690751622554,7.897308433114616e-05,0.00012984001865568848
345,1456704061268161,0.00021408457712680895,6.963867543851066e-05,9.711412467898403e-05,0.00011304115912151686
346,1456704061291313,0.00018552968457626032,5.50275064161838e-05,0.00011169322240712125,0.00010378173787423918
347,1456704061314164,0.00017143544581851362,5.793638510661882e-05,0.00011864509403410812,0.00010326589677919217
348,1456704061328958,0.00017129811033624013,7.573177656588981e-05,0.0001154916844224587,0.00011055660230911204
349,1456704061350697,0.0001834057272206728,0.00010536182050752863,0.00010265023545371958,0.00012332702411837115
350,1456704061374697,0.0002061740668751517,0.00014459523717546378,8.36411505063357e-05,0.00013873455483844106
351,1456704061388725,0.00023836597908190424,0.0001923522435616863,6.407789118330395e-05,0.00015406610156852048
352,1456704061410700,0.00027829232636010346,0.0002480517451399297,4.984715481745565e-05,0.00016711159884905293
353,1456704061441808,0.00032280550761240557,0.0003102650973346776,4.518661843707222e-05,0.00017641346275123324
354,1456704061450781,0.0003670362736065666,0.00037534889394393164,5.140732225900835e-05,0.00018153113207494304
355,1456704061470782,0.00040542423137376703,0.00043695580585162,6.677461955538507e-05,0.00018331826792595483
356,1456704061494783,0.0004338921329338975,0.0004871481802013171,8.757670930691518e-05,0.0001840643829180637
357,1456704061508784,0.0004522886024160178,0.0005191710364980024,0.00010983844573215052,0.00018731605635612626
358,1456704061531077,0.00046576245139146,0.0005309933325368451,0.00013078454302941603,0.00019727749915788483
359,1456704061555372,0.00048384964713299363,0.0005279452473617032,0.0001492970212471993,0.000217806534868827
360,1456704061568374,0.0005169319151446677,0.0005226437574462544,0.0001652843858553527,0.00025111544449365667
361,1456704061590374,0.0005711235265626335,0.0005312506353078061,0.0001787237597769331,0.00029643651814021
362,1456704061614376,0.0006438619427821667,0.000566930546604832,0.0001894797773381045,0.00034919171036604675
363,1456704061635174,0.0007227152074138159,0.0006333867474782566,0.00019839495236917838,0.00040140235446433693
364,1456704061650993,0.0007887480946484613,0.0007219597468557435,0.000208915475277448,0.00044374880522005626
365,1456704061674995,0.0008235908310837282,0.0008139554675088158,0.00022762066145798452,0.00046876158895778287
366,1456704061695182,0.0008172918853583434,0.0008868246567271787,0.00026228327168647034,0.00047372804204959116
367,1456704061711228,0.0007732495311272133,0.0009210676506292406,0.0003175613549192127,0.0004617793640545517
368,1456704061734984,0.0007074392013154491,0.0009053197398203886,0.0003903060327080693,0.00044039158902895175
369,1456704061754730,0.0006416432189567776,0.0008387676850150469,0.00046751647067821365,0.00041777470935314625
370,1456704061771019,0.0005937010651174435,0.0007312645608821419,0.0005292021857334378,0.00039884449850684895
371,1456704061794993,0.0005701357047943079,0.0006017539368508918,0.0005557751138617451,0.00038305716399365895
372,1456704061814946,0.0005656701838202816,0.00047530870551718083,0.0005365236944313579,0.0003656208577536744
373,1456704061830958,0.000569714269455315,0.0003787648206378163,0.0004746745534334455,0.000341478660102498
374,1456704061854968,0.0005747994559579532,0.000334903970066664,0.00038661287032897836,0.000309385673448867
375,1456704061875254,0.0005806056570415749,0.0003557535596237948,0.00029613525234051133,0.00027322666350222674
376,1456704061890970,0.000591135598385505,0.00043692428994085447,0.00022654108020187178,0.00023976036807007506
377,1456704061913972,0.0006082760187951349,0.0005561014017184719,0.0001934502427936512,0.00021451447426976242
378,1456704061936268,0.0006275002566065383,0.0006782595579813836,0.0002004954266760035,0.00019860903602872564
379,1456704061950277,0.0006392051766387056,0.0007671168976850723,0.00023904098244976565,0.0001884045509588863
380,1456704061973277,0.0006345273173057089,0.0007981788641106634,0.0002918017003509194,0.00017799567370509135
381,1456704061995320,0.0006111335451448061,0.0007667156095951539,0.00033891452579529305,0.00016290765732670867
382,1456704062010279,0.0005747473527240243,0.0006865758715677566,0.0003642556985625288,0.00014274177198100914
383,1456704062033806,0.0005355783440181404,0.0005813877638714663,0.00035994646532116505,0.0001212322647732843
384,1456704062055348,0.0005024443598373008,0.00047389646482488243,0.0003278371200561748,0.0001037863343446463
385,1456704062070314,0.00047840839800920095,0.0003788954837534004,0.00027784908567192267,9.40956625922839e-05
386,1456704062093350,0.0004600968047915508,0.0003016703708951761,0.00022404050857870208,9.189561931988593e-05
387,1456704062116316,0.00044047208071893384,0.00024053747163790007,0.00017987923068306258,9.314585866037618e-05
388,1456704062130841,0.000413115504922029,0.00019090244190300278,0.0001542610242342407,9.23593506603691e-05
389,1456704062153369,0.0003754626337611018,0.00014880237509948006,0.0001493390036586215,8.551903749691924e-05
390,1456704062176334,0.0003293298284473574,0.00011283351068820756,0.0001605442148402483,7.186080321069673e-05
391,1456704062190335,0.0002790952915388255,8.416451006231055e-05,0.00017857982588119197,5.379285272043617e-05
392,1456704062213338,0.0002293372780560708,6.509440336708257e-05,0.00019271327519393815,3.544032386407304e-05
393,1456704062237096,0.00018345171324301383,5.7190418534808264e-05,0.00019434353602828521,2.0834571984420522e-05
394,1456704062250351,0.00014354145068900664,6.0048120661362044e-05,0.00017971426898091513,1.2549462170667473e-05
395,1456704062279353,0.00011096160314611481,7.114937583655928e-05,0.00015092744966522682,1.1110869839190897e-05
396,1456704062296354,8.673548314891626e-05,8.659581182270524e-05,0.00011501775903805383,1.513196270017987e-05
397,1456704062311354,7.143533639357102e-05,0.00010214906272046543,8.15156719996944e-05,2.194778071405786e-05
398,1456704062333900,6.467846624475197e-05,0.00011416810528787848,5.93745310079391e-05,2.8496468472988517e-05
399,1456704062357119,6.471207358081776e-05,0.00012035980985136828,5.421524368231183e-05,3.2225083882640834e-05
400,1456704062371085,6.850435696002318e-05,0.000120277591941561,6.662103891259819e-05,3.182034614618118e-05
401,1456704062393883,7.250773212626906e-05,0.00011527048321385075,9.189587395666016e-05,2.759483934154722e-05
402,1456704062423157,7.399856555191348e-05,0.000107643992829139,0.00012139868130935606,2.143060487604974e-05
403,1456704062431162,7.261894509919666e-05,9.93426733286268e-05,0.00014520223788767482,1.6283219830760583e-05
404,1456704062453175,7.142026636482571e-05,9.097999556921321e-05,0.00015533262320082072,1.535070307265364e-05
405,1456704062476175,7.657174725471853e-05,8.193064727891345e-05,0.00014845492237759445,2.110562391153272e-05
406,1456704062491177,9.534488078300103e-05,7.150805886434641e-05,0.0001269666878828474,3.4463413439356927e-05
407,1456704062514178,0.00013298148726212703,6.0525101940877086e-05,9.809561459927341e-05,5.436630337300063e-05
408,1456704062537158,0.00018989514238366018,5.224014922930909e-05,7.139440148123812e-05,7.79627969481438e-05
409,1456704062559164,0.0002606567048557843,5.192798193128085e-05,5.557935059808252e-05,0.00010138704846539027
410,1456704062573083,0.000335412390583177,6.494757918542121e-05,5.581885827324903e-05,0.0001209585412204849
411,1456704062596088,0.00040331580536307686,9.396463610958487e-05,7.23561791705039e-05,0.00013447449972885846
412,1456704062618161,0.00045666929095870135,0.00013660617401652992,0.00010082646485811766,0.00014217966288835996
413,1456704062634069,0.0004940480511516389,0.00018491354579846766,0.00013401259795808382,0.00014701440670246503
414,1456704062656794,0.0005209653431072971,0.00022729169386914618,0.0001643702984386463,0.000153911694879591
415,1456704062678072,0.0005475639576143209,0.0002524233132079161,0.00018653719042787575,0.00016821097497711412
416,1456704062693951,0.0005839229243599661,0.0002534837514723814,0.0001990564999401247,0.00019357391396237778
417,1456704062716798,0.0006345350429000436,0.0002306608409820522,0.00020463932206191566,0.00023004652379874458
418,1456704062737842,0.0006942993318138162,0.00019074167378017848,0.0002087258343504691,0.0002730815510827905
419,1456704062753313,0.000748456104528368,0.0001440825373220374,0.00021698736256366475,0.0003142495794410029
420,1456704062776315,0.0007774978482595262,0.00010078212452994892,0.0002331717881108269,0.00034382794219830034
421,1456704062797315,0.0007656909915157594,6.830058689506177e-05,0.0002585484295435681,0.0003546261694682401
422,1456704062813316,0.0007100002511771982,5.169018703643598e-05,0.00029310776345406567,0.0003457293837585328
423,1456704062836580,0.0006256819181567752,5.568992001870655e-05,0.0003374310442084472,0.00032454756819511385
424,1456704062858126,0.0005453905437345099,8.65029328412194e-05,0.0003936043214970168,0.00030572665920622897
425,1456704062874088,0.0005104424746752829,0.00015116343218351313,0.00046397060609657394,0.000306380700994762
426,1456704062896088,0.0005561012916191698,0.00025401225710857615,0.0005477401212154893,0.00033884540421170566
427,1456704062917089,0.00069634817124238,0.0003919015573916299,0.0006371433124314624,0.00040402673271274013
428,1456704062934134,0.0009153584801877227,0.0005510200745950095,0.0007160517305310303,0.0004890742007777867
429,1456704062962381,0.0011708681578486856,0.000707852266948658,0.0007634881324167322,0.0005714738163712901
430,1456704062977303,0.0014086674178764892,0.0008348582548014375,0.0007616450844890803,0.0006280408221600214
431,1456704062993303,0.0015807183571468443,0.000908923046897007,0.0007044922248755312,0.0006439614956760293
432,1456704063016304,0.001657363005406441,0.0009187675056020221,0.0006017492219130919,0.0006169073175601204
433,1456704063038031,0.0016294515820661137,0.0008677229118733723,0.00047553484253043334,0.0005549006308789969
434,1456704063053540,0.0015041640580916436,0.0007710933824279655,0.0003516646621493218,0.00047093449414380715
435,1456704063076539,0.001300745881063726,0.0006507072288798368,0.00025070239038704333,0.0003784539925364292
436,1456704063099541,0.0010478932873030026,0.000529781847502648,0.0001832001861844687,0.00028930597673389115
437,1456704063113543,0.0007800118387976025,0.00042878314283008415,0.00015005775109326884,0.000212962251897759
438,1456704063136968,0.0005306372069397016,0.00036132356205350355,0.0001456720672257071,0.000155526088467131
439,1456704063159967,0.0003253208124175889,0.0003304880669611238,0.00016096955454151645,0.00011860606145662252
440,1456704063174004,0.00017754627421815756,0.0003279160112411556,0.00018524977105916163,9.920022899514206e-05
441,1456704063196755,8.888194393532418e-05,0.00033736724699835253,0.00020765160750274035,9.126022537655684e-05
442,1456704063219756,5.1973186452710386e-05,0.0003416418934066614,0.00021913516726003034,8.839418704678764e-05
443,1456704063234131,5.4349704727575264e-05,0.00032939946697673156,0.0002145997383340765,8.633870988693923e-05
444,1456704063256716,8.176492466572533e-05,0.0002985668582673462,0.00019393286396504448,8.394333657273108e-05
445,1456704063279718,0.00012063144180466661,0.0002552202151459988,0.00016136205285466898,8.236380127048042e-05
446,1456704063293969,0.00015958603972623223,0.00020929487179085398,0.00012366392617801922,8.325336884038134e-05
447,1456704063316721,0.00019036622722828057,0.00016970841082916888,8.823345798821537e-05,8.718723745700625e-05
448,1456704063339513,0.00020814663069977827,0.00014111369091051346,6.149928708287669e-05,9.314534724076258e-05
449,1456704063353521,0.0002113881742373194,0.00012318390730211619,4.762669653077898e-05,9.90531498796575e-05
450,1456704063382527,0.00020122523245558145,0.00011203024247249907,4.755340858247483e-05,0.00010277118191552192
451,1456704063399523,0.00018053390092921619,0.00010266177209199187,5.875667980354048e-05,0.00010287566158428049
452,1456704063413524,0.00015297443858467615,9.132838517016564e-05,7.60667112106028e-05,9.892787907821233e-05
453,1456704063437010,0.00012227292586698674,7.688312983056107e-05,9.332095242928023e-05,9.129599393031385e-05
454,1456704063459978,9.180612140627352e-05,6.081522376911588e-05,0.00010522152595684615,8.076575400821798e-05
455,1456704063473980,6.438957463043497e-05,4.622129460182538e-05,0.00010873811550917009,6.819682336313072e-05
456,1456704063496981,4.214668417405652e-05,3.64184152894707e-05,0.00010367930423500665,5.44070684646015e-05
457,1456704063519982,2.6396277819889377e-05,3.39221795171233e-05,9.237728805509628e-05,4.031010897849389e-05
458,1456704063535008,1.7581884207056145e-05,4.017648436056797e-05,7.866222250233459e-05,2.7150121883253235e-05
459,1456704063556518,1.5336470695236186e-05,5.5972327901473164e-05,6.645564096466967e-05,1.658999918629405e-05
460,1456704063579520,1.8757145211373254e-05,8.213937001143322e-05,5.8428296393962105e-05,1.0494901977229776e-05
461,1456704063600521,2.684276129718472e-05,0.00011994961002035012,5.522282539630816e-05,1.046313387432618e-05
462,1456704063616522,3.893576388788871e-05,0.0001707808457960648,5.5634093977104835e-05,1.7334170015291972e-05
463,1456704063639822,5.500105823599293e-05,0.00023493774390624157,5.778654766251185e-05,3.09313422897736e-05
464,1456704063661832,7.563374355425412e-05,0.00031004836617403337,6.0848123874937486e-05,5.01833264867331e-05
465,1456704063676833,0.00010177712123876463,0.00038997256788678657,6.64690971467303e-05,7.360090436573215e-05
466,1456704063700239,0.00013430078017367305,0.00046536430369837234,7.916200355916467e-05,9.995986739222801e-05
467,1456704063721138,0.00017377181097065543,0.0005265532926220298,0.00010520800617224803,0.00012899696445225852
468,1456704063736862,0.0002206522771560469,0.0005681231215592955,0.00015021924096363906,0.00016186683743672387
469,1456704063760100,0.00027562222652238413,0.0005929526574791243,0.00021610184226459854,0.00020095231014722784
470,1456704063781003,0.0003392249519557289,0.0006127498802048249,0.00029870850624936086,0.00024862263115368253
471,1456704063796872,0.00041030916113106837,0.00064344447452267,0.0003875678074591568,0.0003050903461982455
472,1456704063818873,0.0004838721494265269,0.000697029041254257,0.00046835624339775384,0.0003664409440537553
473,1456704063847985,0.0005500520792560727,0.0007743265131561685,0.0005274845220892859,0.00042436404556552004
474,1456704063857263,0.0005962151246676175,0.0008631190339523817,0.0005571687036904882,0.0004685306316649949
475,1456704063878986,0.0006127684182301971,0.0009428223279244717,0.0005592119512416716,0.0004911711647959217
476,1456704063901229,0.0006005923648524393,0.0009929079531604955,0.0005461500640867396,0.0004918716325799852
477,1456704063916988,0.0005753767655047466,0.0010004571156885258,0.0005388419889417498,0.00047972024192762306
478,1456704063938785,0.0005643595162778766,0.0009635430823888484,0.0005600098675693975,0.00047057909342912993
479,1456704063960576,0.0005951368684238581,0.0008901891736300101,0.0006244451493110652,0.00047970781848523657
480,1456704063976579,0.0006818524383036539,0.000794958156381178,0.0007291436204659032,0.0005131501113267403
481,1456704063998580,0.0008167150377817828,0.0006953230631180697,0.0008490610560639931,0.0005629927584820333
482,1456704064021591,0.0009718866500526928,0.0006085022347505197,0.0009433140181484556,0.0006099540864453523
483,1456704064036880,0.0011101971572913668,0.000548227995930485,0.0009711042082890866,0.0006322206974535536
484,1456704064058390,0.0011980300469700777,0.000521157814799654,0.0009097953826068596,0.0006153058587563168
485,1456704064081392,0.0012140554524771034,0.0005240089942288378,0.0007652600687821084,0.0005573914058631244
486,1456704064096393,0.0011521603816943156,0.0005435242166270476,0.0005691983240227985,0.0004682042357482814
487,1456704064118394,0.0010208666727545127,0.0005606730051249515,0.00036591560939186035,0.00036362371107913984
488,1456704064141256,0.0008412512907356856,0.0005580614815480136,0.00019616894062666852,0.00025975188137814735
489,1456704064156246,0.0006428309779527117,0.000527037844082202,8.543514274360643e-05,0.00016892841460572312
490,1456704064179248,0.0004565332259266409,0.0004706026099218833,3.9931204280415765e-05,9.819818701613829e-05
491,1456704064201249,0.00030656402207753376,0.00040062820281490483,4.9368188313404914e-05,4.966146861040343e-05
492,1456704064216250,0.00020496371851393995,0.00033138880104700364,9.323929537930822e-05,2.1894403912143472e-05
493,1456704064239184,0.00015121572477228988,0.00027331774382930384,0.00014772587380684134,1.1602993881141957e-05
494,1456704064261840,0.00013605770161122916,0.0002299864735017822,0.00019167089426952878,1.4811799506557592e-05
495,1456704064276841,0.00014664347897145686,0.00019881030558685647,0.00021102562790246775,2.7324644058392838e-05
496,1456704064298843,0.00017046092922886233,0.00017411932975994077,0.00020130674595161038,4.471412148334898e-05
497,1456704064321843,0.00019706951098198423,0.00015074469091567408,0.00016749204431223402,6.236142601669483e-05
498,1456704064336659,0.0002183731317570391,0.00012652484939204448,0.00012117629641092785,7.594515355711238e-05
499,1456704064366677,0.0002287288018112251,0.00010274021606382789,7.583663232940596e-05,8.23716953502546e-05
500,1456704064381679,0.0002255435854757014,8.253796921797481e-05,4.20247046011136e-05,8.071352841531966e-05
501,1456704064396679,0.00020990590508948982,6.851896639451096e-05,2.435154833701177e-05,7.255992133036291e-05
502,1456704064418680,0.00018626978353957605,6.099831794384764e-05,2.1180591395594348e-05,6.140861656149455e-05
503,1456704064441863,0.000160699279758742,5.779779822236835e-05,2.6687079665797715e-05,5.12163926532019e-05
504,1456704064462829,0.0001382464718827316,5.540504151000353e-05,3.405539153655843e-05,4.471510320094528e-05
505,1456704064479088,0.00012081192628455595,5.067632523088452e-05,3.834593935732672e-05,4.231429957603139e-05
506,1456704064503102,0.00010672687449173652,4.223184206464699e-05,3.7963019669697636e-05,4.2184535852167544e-05
507,1456704064523103,9.238703548475318e-05,3.108144827558462e-05,3.4445571100660665e-05,4.1517117856035684e-05
508,1456704064538574,7.515762482333741e-05,2.042913116886037e-05,3.1042247964307906e-05,3.832243012058496e-05
509,1456704064561204,5.607967438009792e-05,1.4806835782056316e-05,3.087608158909276e-05,3.2845461639398645e-05
510,1456704064583206,4.095308828303186e-05,1.8750582854049633e-05,3.5445738105083316e-05,2.7886772966374447e-05
511,1456704064606085,3.9089561858766914e-05,3.5312853205438744e-05,4.395761956956678e-05,2.785532456812405e-05
512,1456704064621161,6.0056182432446634e-05,6.481696850532062e-05,5.367438086611866e-05,3.695624547185097e-05
513,1456704064643204,0.00010960830041829828,0.00010429164527097335,6.111158676275879e-05,5.729435928561031e-05
514,1456704064658204,0.00018641104186783595,0.0001479071839867975,6.357918074158558e-05,8.77115582159287e-05
515,1456704064681179,0.00028095242396207715,0.00018848144619739248,6.044107950958526e-05,0.00012385559506524716
516,1456704064703194,0.0003773221758431465,0.0002197745750547465,5.366519239971228e-05,0.00015946639162077979
517,1456704064718201,0.00045753210621431883,0.00023892662537798405,4.757995040260422e-05,0.00018843832061731696
518,1456704064734211,0.0005071505859608492,0.00024816271499736086,4.793037672938729e-05,0.00020701920170437338
519,1456704064754981,0.0005204604308683596,0.0002549420842846617,6.029255761604362e-05,0.00021545543569535762
520,1456704064777983,0.0005032268770899493,0.0002700994552947843,8.799688433130239e-05,0.00021838793890803884
521,1456704064793130,0.00047159989459482184,0.0003041629607767002,0.00013016658050699818,0.00022347933717188894
522,1456704064815130,0.000446811240474915,0.0003628458968564373,0.00018094450878656458,0.00023836723704326267
523,1456704064838202,0.0004470859341729229,0.00044349635982170003,0.00023081962854542017,0.00026703499825909315
524,1456704064852513,0.00047997269168458104,0.0005345185913560018,0.0002700392335572815,0.00030745136923055995
525,1456704064874219,0.0005388998768020656,0.0006187675461127401,0.00029293288378232877,0.00035204172412496684
526,1456704064897511,0.0006060883212465821,0.0006797314207153835,0.00030119599284895434,0.00039101113377692414
527,1456704064920549,0.0006604503947205728,0.0007074055651907673,0.0003041520065997171,0.00041664682415105795
528,1456704064935008,0.0006861424696176227,0.0007008423179812025,0.0003150107549781886,0.00042598019235218085
529,1456704064957798,0.0006773763676279966,0.0006665210436286043,0.0003441655163740219,0.0004203450641314715
530,1456704064972528,0.0006379832651400958,0.0006142489994542863,0.00039272402974126436,0.0004026526114291126
531,1456704064994524,0.0005777489535040075,0.0005534338723297822,0.0004501323508938435,0.0003748790762952518
532,1456704065017748,0.0005089368830514657,0.0004915520447904106,0.0004979118615640114,0.00033792480232362076
533,1456704065031963,0.00044463097037533597,0.000434423139569657,0.0005179668910191333,0.00029373792080970797
534,1456704065056043,0.0003975046187490649,0.0003865560529602686,0.000501010907097302,0.00024733366358123355
535,1456704065078187,0.00037683490063162407,0.00035045676714199535,0.00045062021654016253,0.00020631381321150003
536,1456704065093189,0.00038406313795096464,0.0003253580753894151,0.0003812377490516631,0.00017773144502676908
537,1456704065115144,0.0004100791155189148,0.0003067744023101913,0.0003118266205322853,0.00016440320976750163
538,1456704065137873,0.00043738637050380835,0.0002879934202177392,0.0002586031765624059,0.00016317500672654228
539,1456704065152352,0.00044721835476598486,0.00026324723816353944,0.00022996511005752876,0.0001663040058171234
540,1456704065175353,0.0004280769566487249,0.00023076296471761238,0.0002251688741650899,0.00016521085713491014
541,1456704065198742,0.00038085273765498646,0.00019364561312466721,0.0002364272752250481,0.00015449944600322852
542,1456704065212494,0.00031767625272363203,0.00015804452724665766,0.000252774753563527,0.0001340645851382836
543,1456704065235160,0.0002555120290869838,0.00012995049660219398,0.0002638810935354041,0.00010834300537564716
544,1456704065258034,0.0002084635199418796,0.00011268619025467821,0.0002627614632830709,8.348216907058607e-05
545,1456704065272706,0.0001828868915985919,0.00010639589983724519,0.0002471614455941874,6.426594316708769e-05
546,1456704065294701,0.0001770599562671163,0.00010934599952131025,0.00021967640227706783,5.246108242472613e-05
547,1456704065317963,0.00018433191346632546,0.00011961614533232928,0.00018660502207113404,4.7141859102660344e-05
548,1456704065332919,0.00019723479247377908,0.00013566704289823912,0.0001557371981250689,4.6327234832868577e-05
549,1456704065354909,0.0002103914975581371,0.00015543771966715372,0.00013381439699384823,4.86497851084546e-05
550,1456704065377908,0.0002214046871267153,0.0001750472642703648,0.00012466249679104978,5.40332037185605e-05
551,1456704065392915,0.00023017016537869755,0.00018859902069923975,0.00012856102347731877,6.318528755701997e-05
552,1456704065414877,0.0002375572157132848,0.00018975738382195613,0.00014268651213724705,7.646945503125657e-05
553,1456704065438152,0.00024416995712554654,0.0001744748038047336,0.0001621185533858344,9.294835499213307e-05
554,1456704065452393,0.00024954962186773375,0.00014341493311745705,0.00018102487442435487,0.00011016429501450206
555,1456704065476387,0.00025211695949305514,0.00010271147721579222,0.00019386823369064063,0.00012482180956651618
556,1456704065497389,0.00025006557764939045,6.261940369375649e-05,0.0001965408958237445,0.00013409834380111985
557,1456704065521389,0.00024288079283976325,3.473801350876534e-05,0.0001872743060599528,0.00013693095832820957
558,1456704065534984,0.00023255573726572,2.9057908288818022e-05,0.00016712840987018177,0.00013458320680027717
559,1456704065557996,0.0002236480519814644,5.184528860769745e-05,0.0001398958006518697,0.00013021977779921687
560,1456704065580997,0.00022207040225527444,0.00010470670996751399,0.00011134090987886817,0.0001277833216080016
561,1456704065595203,0.00023322671455968042,0.00018460022377241774,8.781735845921132e-05,0.0001307319438519676
562,1456704065618172,0.00026029434921290333,0.00028434251634693335,7.449501045229503e-05,0.00014107992065731388
563,1456704065640828,0.00030320791231530956,0.00039331872753183564,7.368663879356213e-05,0.00015893082316784698
564,1456704065655169,0.00035855152761870635,0.0004984706672390204,8.397623797950163e-05,0.00018251711394678895
565,1456704065678139,0.0004203036889313118,0.0005859347826036191,0.00010078765887310624,0.00020870676437471805
566,1456704065700799,0.00048121681820320047,0.0006436521224775606,0.00011852162559176219,0.0002339362831816991
567,1456704065715071,0.0005345142513704708,0.000664798651082324,0.00013355528450618835,0.0002554795597555994
568,1456704065737800,0.0005755496881641617,0.0006511753596216574,0.00014671257758986275,0.00027278775731025284
569,1456704065761126,0.0006030935738536539,0.0006151124872778965,0.0001637806232073611,0.0002883617932350336
570,1456704065775124,0.0006198890374875653,0.0005783241962581583,0.00019338341234244414,0.0003074574105254042
571,1456704065797055,0.0006320111699428491,0.000566818274435327,0.0002427256245049951,0.00033620851374739657
572,1456704065820063,0.0006466589306929676,0.0006026251362110722,0.0003129346819097983,0.00037858508396867047
573,1456704065834886,0.000668733048032155,0.0006951913783955631,0.00039640733779740874,0.0004335324718226783
574,1456704065858121,0.000697758016991831,0.0008362420832853281,0.0004781012371495751,0.0004939680327313722
575,1456704065881115,0.0007273480268824146,0.0010006821068549309,0.0005410017481458356,0.0005486698486737662
576,1456704065895120,0.0007483166277805182,0.001153373674924385,0.0005738430268687344,0.0005866482229094629
577,1456704065918159,0.0007539198017565068,0.0012591034144571237,0.0005776629859609897,0.0006019990332093023
578,1456704065941128,0.0007437571836562184,0.0012920986929707968,0.0005675507669533333,0.0005965277737713339
579,1456704065954142,0.0007235899228347511,0.0012423982379069884,0.0005673121403870251,0.0005783600911510171
580,1456704065977143,0.0007013074777708072,0.0011181915925535105,0.0005978976232955283,0.0005569907982650177
581,1456704066001158,0.0006820607837997879,0.0009443426821595972,0.0006644850288654293,0.000537507949310857
582,1456704066015139,0.0006661555313733312,0.0007573487087228464,0.0007496049490769216,0.0005176588903955656
583,1456704066037931,0.000651145537369071,0.0005969870019941044,0.0008178574691477833,0.0004899965603027601
584,1456704066061226,0.0006359267652688391,0.0004957570591324633,0.0008313814608358293,0.00044786384883340033
585,1456704066075227,0.0006226606862362297,0.00046881795451354964,0.000768191137829614,0.00039094093725517
586,1456704066098229,0.0006145984264946486,0.0005083705795348905,0.0006332561481081355,0.00032641575179299687
587,1456704066120562,0.000612333419225726,0.0005857385943713582,0.0004567051923012901,0.0002653607641039505
588,1456704066135067,0.0006124908379989718,0.0006612232656649998,0.00028112295906115804,0.00021723190892620554
589,1456704066158152,0.0006097011002169541,0.000697933447550736,0.00014509330243355598,0.00018592147575627031
590,1456704066180081,0.0005991648213754118,0.0006739019862800768,7.046495856576948e-05,0.00016903915347821785
591,1456704066195152,0.0005774067973644881,0.000587932535895546,5.7625477687036714e-05,0.00016007010849899096
592,1456704066218153,0.0005416557761741945,0.0004576903700823449,8.902996182588485e-05,0.00015187166380493925
593,1456704066240634,0.0004897075190413263,0.00031174864569459755,0.00013820133076836933,0.0001396941607270511
594,1456704066254383,0.0004210696737080721,0.00017930785270140018,0.00018005511751037552,0.00012244754886276795
595,1456704066277390,0.00033860934101178334,8.15639071958691e-05,0.00019869213914257866,0.00010203624104189334
596,1456704066308652,0.0002493666451711036,2.735144234871256e-05,0.00019040224626273609,8.1599712631828e-05
597,1456704066314385,0.00016367145948702842,1.3552354544983634e-05,0.0001618219767848239,6.382322356672447e-05
598,1456704066337604,9.271442765592275e-05,2.8967283575545443e-05,0.00012504042548762604,5.0114771227561186e-05
599,1456704066361110,4.565577227787589e-05,5.957405082894808e-05,9.219639062624909e-05,4.07967200598114e-05
600,1456704066375112,2.7515102007714795e-05,9.32452990106263e-05,7.159114757793881e-05,3.5895436012976694e-05
601,1456704066398123,3.838752531207523e-05,0.0001226479410305488,6.608118706003189e-05,3.582845566411633e-05
602,1456704066421147,7.372482258452209e-05,0.00014584525503371113,7.34003312868019e-05,4.1423972157378036e-05
603,1456704066437163,0.00012521767754683624,0.00016482111157194545,8.76601640740408e-05,5.321866504512417e-05
604,1456704066458176,0.00018211857060203765,0.00018269218966590663,0.00010143283986824413,7.051916698270127e-05
605,1456704066480922,0.00023305393810396828,0.00020081501224817613,0.00010800057250451874,9.088743449543995e-05
606,1456704066495169,0.0002681880992541672,0.00021712624742372527,0.00010332192223250747,0.00011044183508628708
607,1456704066518173,0.0002812874021521379,0.00022656518152966242,8.72181684941335e-05,0.00012489864446701824
608,1456704066540934,0.00027116767282013874,0.00022344830804897961,6.34566172401662e-05,0.00013092875744720396
609,1456704066555143,0.00024219154609036225,0.00020475205081853386,3.874585083937179e-05,0.00012732415297623593
610,1456704066578172,0.00020365250634728278,0.00017284456020837623,2.0948649004435192e-05,0.00011558920602069513
611,1456704066601136,0.00016796252717455644,0.00013637343551550231,1.6952950159108368e-05,9.975065159729775e-05
612,1456704066614945,0.00014775004936829015,0.00010866297590367846,3.065552830243086e-05,8.537000157376834e-05
613,1456704066638038,0.00015240680958211248,0.00010392482331785254,6.149863353926471e-05,7.797261906118345e-05
614,1456704066660545,0.00018508914335229826,0.00013251431851468858,0.00010401674925262158,8.134047018213447e-05
615,1456704066675258,0.00024129132304015724,0.00019693651365376244,0.0001488222964575069,9.622391106576823e-05
616,1456704066697260,0.00030969714668939576,0.00029007648867644046,0.00018516675975519404,0.00011994319419714877
617,1456704066721260,0.00037528803426728756,0.00039637736929641463,0.00020454297307155136,0.000147131539435446
618,1456704066742865,0.00042393946274304285,0.0004958093192661841,0.00020402781355948304,0.00017157245201958917
619,1456704066757071,0.00044711968211161784,0.0005696711852081497,0.00018780314256888574,0.00018867218724343484
620,1456704066780067,0.0004449609502537404,0.0006065184151195298,0.00016593961274014702,0.00019762836161004433
621,1456704066803133,0.0004262140093101328,0.0006059419026690402,0.0001508102898715335,0.0002021165818815762
622,1456704066818094,0.00040467577160859,0.0005781556192381768,0.00015260956746218624,0.00020875899437826356
623,1456704066839865,0.00039336518913326315,0.0005390870010771016,0.00017576391423076054,0.00022383219540502247
624,1456704066863378,0.0003991210273673299,0.0005033734070262872,0.00021759274842245816,0.0002499260799193925
625,1456704066877639,0.000420385570061704,0.00047915563569317154,0.00026982827539478034,0.00028455272411164937
626,1456704066899615,0.000449482718643081,0.00046713030064855554,0.000322740312580244,0.00032168101150989323
627,1456704066922599,0.00047840213038082756,0.0004631998755445647,0.00037063538198754914,0.0003554973704431488
628,1456704066938105,0.0005050037252010511,0.0004621669425072606,0.00041653639716382154,0.0003843208950470983
629,1456704066959962,0.000535791277214946,0.0004604618603210123,0.00047329734626738496,0.0004122100276999728
630,1456704066983999,0.000582944831178455,0.0004574841813717747,0.0005589430649309692,0.0004467499631399448
631,1456704066997633,0.0006568802423725287,0.00045595016400472907,0.0006863350542441016,0.0004936590507864647
632,1456704067019967,0.0007590110610591972,0.0004612896193448178,0.0008511019282871827,0.0005512016310178895
633,1456704067042977,0.0008796945114072119,0.00047966502432653877,0.0010249768522247122,0.000608279125384334
634,1456704067057521,0.0010025238403755972,0.0005147170400546796,0.0011609302158613183,0.0006482242085588672
635,1456704067079485,0.001110866627866223,0.0005644303340734403,0.0012104106049302134,0.0006564210111819837
636,1456704067102648,0.0011908222557701204,0.0006200058241920912,0.0011449590134139053,0.0006268963532245178
637,1456704067117749,0.0012291445240848768,0.000667487374918249,0.0009706960702082789,0.0005638584974537619
638,1456704067139743,0.0012112918937091743,0.000691368617855821,0.00072801711358423,0.00047824645940045034
639,1456704067162715,0.0011258877969078094,0.0006789879489102083,0.0004772351115935553,0.0003827838004242636
640,1456704067178018,0.000974848693631567,0.0006247399458953934,0.00027771330048245875,0.00028878377994850945
641,1456704067199980,0.000780526063339862,0.000532866186015565,0.00016955507388765302,0.00020515985487160474
642,1456704067222753,0.0005816528271233752,0.00041729641247013004,0.0001638787828777054,0.00013817547275660067
643,1456704067237752,0.00041857254112921195,0.0002978729443640218,0.00024308452819115736,9.091646080108127e-05
644,1456704067259740,0.0003164612808856577,0.0001941490323763905,0.00036898495558797696,6.282331035671891e-05
645,1456704067282777,0.00027627376862047803,0.00011938633529979306,0.0004952406237615986,5.0054587234925955e-05
646,1456704067297742,0.00027767111560347233,7.728938775300826e-05,0.0005805585931061563,4.6844891805480606e-05
647,1456704067319744,0.0002910644929769491,6.256128047493198e-05,0.0005994629771146335,4.7329338171445714e-05
648,1456704067343029,0.00029153986155401644,6.457403994592773e-05,0.0005479123737489385,4.712596043167954e-05
649,1456704067358055,0.00026779690436430626,7.228817398070928e-05,0.00044221671510830026,4.419445419754741e-05
650,1456704067379804,0.00022325010855039622,7.838325275923029e-05,0.00031178024418622116,3.8832218546188874e-05
651,1456704067403024,0.00017088947194031297,8.115204149820223e-05,0.00018840267604603803,3.297373593254817e-05
652,1456704067419052,0.00012575178701218652,8.366310016351048e-05,9.611107996071153e-05,2.9143232265091443e-05
653,1456704067439814,9.858763504443205e-05,9.076334586247401e-05,4.5107692742942e-05,2.9419777543416426e-05
654,1456704067463021,9.271547881573002e-05,0.00010542813319200633,3.1510029183833316e-05,3.467531312207924e-05
655,1456704067478068,0.00010433917454322725,0.00012631081921890054,4.2023799328085405e-05,4.426466188601113e-05
656,1456704067500111,0.00012538132802963293,0.00014774573464564005,6.08136492119179e-05,5.62805595022377e-05
657,1456704067523108,0.00014725128497045822,0.00016213619944495475,7.549117831894636e-05,6.831443397470095e-05
658,1456704067537817,0.00016389741525920772,0.00016336623508025368,8.021774299149935e-05,7.838546088707261e-05
659,1456704067559328,0.00017306754947045208,0.00014943340687478357,7.558556754848166e-05,8.555939344456547e-05
660,1456704067582334,0.00017573400651249777,0.00012317242593060476,6.628512166565083e-05,8.997812096850427e-05
661,1456704067597369,0.0001744767799276571,9.111464347201551e-05,5.8062665141479445e-05,9.23973276075103e-05
662,1456704067619527,0.00017180215736476516,6.130072474332346e-05,5.517133509877553e-05,9.355089751337982e-05
663,1456704067642751,0.0001691216864204077,4.094439907524798e-05,5.893649804172995e-05,9.365805661908261e-05
664,1456704067657047,0.00016675215450915674,3.4591917007029326e-05,6.764173102967131e-05,9.230259543513124e-05
665,1456704067679141,0.0001647699815034779,4.315303228616612e-05,7.766937481728376e-05,8.876282111393672e-05
666,1456704067703047,0.00016394285958087554,6.39387896534576e-05,8.544778252654921e-05,8.262144216525754e-05
667,1456704067718062,0.0001658388071992228,9.163222682987993e-05,8.932834191203815e-05,7.429294929796118e-05
668,1456704067740277,0.00017189556868011028,0.00011992630997988008,9.04520811557549e-05,6.51670236691524e-05
669,1456704067762465,0.00018214247894709007,0.00014333057777608473,9.218998566274475e-05,5.730672489956141e-05
670,1456704067777548,0.00019460944118437345,0.00015849207762451788,9.85172687318469e-05,5.2831213826358254e-05
671,1456704067799506,0.00020609295344192096,0.00016456560698776269,0.00011214294272626673,5.3195451164339904e-05
672,1456704067830525,0.0002141445131930447,0.00016267469654039027,0.0001331420973197001,5.863607861228209e-05
673,1456704067837516,0.00021919669507699995,0.0001549287656678499,0.00015849616875214352,6.805865607633431e-05
674,1456704067859595,0.00022523461765054214,0.00014353439383601018,0.00018268755945586725,7.947905178696052e-05
675,1456704067882447,0.00023802192094928045,0.00013034204221223968,0.0001993067355370858,9.081423307283535e-05
676,1456704067897316,0.00026145124768003523,0.00011688037699720668,0.00020326280222046888,0.00010056090610125688
677,1456704067919600,0.00029403777739014057,0.00010467189254420161,0.00019272111385628678,0.00010795848933447734
678,1456704067942825,0.0003278395781056935,9.548938137339778e-05,0.00016981013541356423,0.00011263287437012558
679,1456704067957669,0.00035087308400891037,9.126217306410364e-05,0.0001397163232405866,0.00011413906014181817
680,1456704067979339,0.0003520484903985435,9.358373147993825e-05,0.00010867497069951314,0.00011186447681310805
681,1456704068002346,0.0003260965067983254,0.00010307930803268665,8.193681133244952e-05,0.00010538630428411183
682,1456704068025340,0.0002759785984596371,0.00011899858730139048,6.267787992551374e-05,9.496780391664354e-05
683,1456704068039858,0.00021175525485860817,0.00013920964891386402,5.2133770735183436e-05,8.178139408913671e-05
684,1456704068062438,0.0001466987214517629,0.00016052435837864948,5.0434869356247606e-05,6.766529873773988e-05
685,1456704068085642,9.254493722885259e-05,0.00017921560667114568,5.723293856315042e-05,5.452566772082163e-05
686,1456704068099588,5.589596074570587e-05,0.00019163934139591285,7.154125556706614e-05,4.3694686380059606e-05
687,1456704068122667,3.712756973953561e-05,0.00019489225757244005,9.102761070387805e-05,3.5590453587269724e-05
688,1456704068145626,3.207323732312941e-05,0.00018741150990425555,0.00011161538254194003,2.9905823242724515e-05
689,1456704068159884,3.5619361152636015e-05,0.00016942759567893734,0.0001281332390473831,2.6312888272387694e-05
690,1456704068182876,4.5536282938488074e-05,0.0001432097646697301,0.00013604687629021367,2.5379720077990255e-05
691,1456704068205907,6.468613425888615e-05,0.00011304914246900592,0.00013356863270244377,2.9176767407355144e-05
692,1456704068219944,0.00010033875660184473,8.491208021408981e-05,0.0001230742762213241,4.104626885228963e-05
693,1456704068242517,0.00016057308769430587,6.569004593234845e-05,0.00011088062844171099,6.431801631839998e-05
694,1456704068265529,0.0002491430847941712,6.199970644243636e-05,0.0001050869060086014,0.00010031571628958066
695,1456704068279528,0.00036102980179816716,7.861376133513217e-05,0.0001122001375900733,0.00014652386756521332
696,1456704068302811,0.0004807840455837728,0.00011684392694035854,0.00013410222007412723,0.0001959301234259322
697,1456704068325688,0.0005849006939128955,0.00017339060528631477,0.00016692886927809013,0.0002382117487927556
698,1456704068339993,0.0006482251590296504,0.0002401423459181754,0.00020248716623691448,0.0002627436495031818
699,1456704068362441,0.0006528178816940552,0.000305210073612788,0.00023151352619023654,0.00026255902817372994
700,1456704068385734,0.000596041541732829,0.0003552645944509687,0.00024719999879496186,0.00023766601970430612
701,1456704068399726,0.0004939924994197635,0.00037892369406087955,0.00024745927376913687,0.00019602313154342554
702,1456704068422446,0.00037791096633792886,0.00037033472664331756,0.0002351737569070912,0.00015137914052131338
703,1456704068445600,0.00028447425610991594,0.0003314893708248098,0.0002165849817845246,0.00011872084146367939
704,1456704068461301,0.0002438666572305075,0.0002719042547287663,0.00019858287753591177,0.00010924425474379248
705,1456704068483265,0.00027029810421834986,0.00020545592587074973,0.00018594399632365988,0.00012683300825332228
706,1456704068505600,0.00035805592589779276,0.0001457361537178371,0.0001796204843730977,0.0001671287016384031
707,1456704068519559,0.0004837143552160854,0.00010213882745771521,0.00017682963459349988,0.0002191435814548585
708,1456704068543084,0.0006133018465051289,7.83587423238484e-05,0.0001728702278153309,0.0002686217237103478
709,1456704068565674,0.0007122404085216485,7.34516163320285e-05,0.0001637176035031248,0.0003020905817456922
710,1456704068579638,0.0007551714595714111,8.41525653768373e-05,0.00014810217365679597,0.00031049663083552163
711,1456704068603004,0.0007325387935036635,0.00010675588570776449,0.00012812432107300612,0.00029141101250809275
712,1456704068625714,0.0006518246503630507,0.00013763643910809703,0.000108221238078627,0.00024921514071495846
713,1456704068639702,0.0005335087676842185,0.0001726524655927413,9.307617005582848e-05,0.00019339496536499833
714,1456704068662180,0.00040378756950884255,0.00020637149619823913,8.553322308312236e-05,0.00013567668727509712
715,1456704068685440,0.0002868095516007477,0.00023211207950450446,8.555842448284831e-05,8.692747473348839e-05
716,1456704068700178,0.0001988059890903769,0.00024334406266808477,9.072719019262521e-05,5.4620466739434024e-05
717,1456704068723178,0.00014558826947913257,0.00023612400343291554,9.783237903418289e-05,4.1438083527284466e-05
718,1456704068744480,0.00012368852582251728,0.0002113205776211109,0.00010452788669696682,4.529639116668928e-05
719,1456704068759795,0.00012414868957264045,0.0001751573757096123,0.00011000203860087733,6.0674994238068335e-05
720,1456704068782655,0.0001371175292217823,0.00013741138356141575,0.00011448867420243685,8.072774222794848e-05
721,1456704068804795,0.0001554191197043529,0.00010789983857239545,0.0001182633189532854,9.941919960266719e-05
722,1456704068819796,0.00017600308190641065,9.281324330826356e-05,0.0001209606446369246,0.00011299117981325735
723,1456704068842799,0.00019918873173522088,9.25697082014889e-05,0.00012159800472346195,0.00012038554764744377
724,1456704068864797,0.00022643386623110177,0.00010218097251356871,0.0001191154191916663,0.00012268158562546482
725,1456704068879798,0.0002577691901206591,0.00011390712041148015,0.00011297533360260875,0.00012193296387298173
726,1456704068903092,0.00028999503162835025,0.00012081466860986009,0.00010346349272405045,0.00011989849345154216
727,1456704068925064,0.0003163714618151239,0.00011945957883325418,9.159692686999447e-05,0.00011712134255867811
728,1456704068939822,0.0003280518496361694,0.0001105554412279115,7.876013573389073e-05,0.00011270213941123392
729,1456704068962839,0.0003169644291266147,9.765955160639108e-05,6.626201057103883e-05,0.0001048802316606739
730,1456704068984840,0.00027920048782026564,8.484774871514291e-05,5.496270249294614e-05,9.215972393076003e-05
731,1456704069000010,0.00021746631199471487,7.463739885465708e-05,4.505344195924606e-05,7.4388959838038e-05
732,1456704069023018,0.00014129497450540306,6.708477648708304e-05,3.6050195041515696e-05,5.319784591048853e-05
