,timestamp,emg1,emg2,emg3,emg4,emg5,emg6,emg7,emg8
0,1456704054527059,0.40068177989801074,0.7761535980939102,0.22910500516088952,1.0928859646699771,0.5218466375940531,0.031178944166238478,-0.04140348202841502,-0.07129179915026024
1,1456704054527059,0.872182895935536,1.5010669341048166,1.3812784195316612,2.311474353482435,0.9949933858128599,0.25465517345765204,0.3874417211979667,0.23954639928728919
2,1456704054528039,1.3260662858411552,2.1812031201990627,2.501203862053969,3.4972429021232787,1.4496091879592774,0.4748110901035436,0.8172459394353596,0.5502116534880592
3,1456704054528039,1.7598024027759487,2.8120669119620594,3.577378977715269,4.636639720604196,1.8820284950615256,0.6891585681070795,1.2448016860385747,0.8559398873816954
4,1456704054529019,2.171168187945676,3.389875171645597,4.599163154058134,5.717218375434866,2.28888643259481,0.8953233490997414,1.667017942823827,1.1522468874939809
5,1456704054529019,2.5582967567358854,3.911648162472633,5.557038286150612,6.727978367081994,2.6671886390913433,1.09109794235954,2.0809697054968774,1.4350563840758297
6,1456704054529519,2.9197157712205666,4.375280277315001,6.442826856994415,7.659639585744834,3.0143711894564498,1.274488108333962,2.4839371406246267,1.7008036608381216
7,1456704054529519,3.2543731127364577,4.779586323430151,7.249859390719606,8.504841967750199,3.3283483497857627,1.4437516428302295,2.8734340294809964,1.946511299743652
8,1456704054539565,3.561649491709743,5.124320863924777,7.973086281527371,9.258268441655485,3.6075466746532365,1.5974286784480562,3.2472261826017847,2.1698358307718433
9,1456704054539565,3.841358409848426,5.410169858730739,8.609132305157528,9.916694017940015,3.8509249834986394,1.7343631096185268,3.603341225926569,2.3690859310491024
10,1456704054547525,4.093734507379709,5.638715579745351,9.15629584585532,10.478966136600699,4.057980688409154,1.853715062816507,3.9400715051836444,2.543214433133457
11,1456704054547525,4.319411848798067,5.812377103979349,9.614498202108617,10.945921981854749,4.228743451458252,1.9549645993813067,4.255971793496813,2.69178763299006
12,1456704054555525,4.519394075440974,5.934329477455815,9.985190267415616,11.320248806982379,4.3637572556609125,2.0379070532571544,4.549853055907379,2.8149360540591983
13,1456704054555525,4.695018476753114,6.008405116039739,10.271224306280395,11.606294658740532,4.46405200345971,2.102640624320022,4.820772852463078,2.9132909626083068
14,1456704054569567,4.847915802874148,6.038981497712502,10.476698251255737,11.809839407392978,4.53110593871089,2.149547141238435,5.068022270467749,2.9879107723045357
15,1456704054569567,4.979967056943172,6.03085964821204,10.606779798581352,11.937838348992774,4.566800433491966,2.179267244269734,5.291108840715261,3.0402012315180085
16,1456704054580527,5.09325777534734,5.989137984169232,10.667517870011899,11.998151357940452,4.573368797791184,2.1926714901243756,5.489735009344543,3.07183306116989
17,1456704054580527,5.1900298013882535,5.919085804356483,10.665649415720235,11.999269533809658,4.553340776119248,2.190828940465563,5.663772517332163,3.084660503928854
18,1456704054584527,5.272630581599151,5.826020553890858,10.608409540665034,11.950049547312274,4.509484456952807,2.1749746506743377,5.813234105084392,3.080643950022176
19,1456704054584527,5.343460531476714,5.71519297059586,10.503352206457935,11.859464219349421,4.444747461607901,2.1464771901772304,5.938244676306169,3.0617793155746194
20,1456704054599563,5.404919618949782,5.591683836368611,10.358187216403682,11.736376233073925,4.362199334021679,2.106806977273876,6.039014175302772,3.030036227141043
21,1456704054599563,5.4593544961721125,5.460314953831175,10.180637065648522,11.589340029472389,4.264976878316167,2.057505857580359,6.115814179463954,2.9873065062665027
22,1456704054607528,5.509007078964649,5.325575396710277,9.97831500149044,11.426434960282617,4.156233776886597,2.0001580481448347,6.168959817316426,2.935364042402303
23,1456704054607528,5.555964691813809,5.1915625587447325,9.758623604093135,11.25513100935997,4.039095244876032,1.936362366740104,6.198798186660716,2.8758367693320244
24,1456704054645541,5.602111316079488,5.061936423436061,9.528671306338673,11.082186994344013,3.9166178441271198,1.8677056024089083,6.205704093060931,2.8101909599491837
25,1456704054645541,5.64907963690668,4.939884899574117,9.295202527752563,10.913579851692568,3.7917539922255212,1.795736957857562,6.190083729362158,2.739727422293419
26,1456704054653542,5.698204628522496,4.828097985267354,9.064536081264682,10.754462018736621,3.6673202402879412,1.7219436974199294,6.15238670414857,2.6655885192961746
27,1456704054653542,5.750480876205471,4.728748945682225,8.842507033735638,10.609142245136992,3.545968134998998,1.647728429684053,6.093126336700269,2.588774295076731
28,1456704054654542,5.806526915597318,4.643481577281327,8.634409359644163,10.48108431321911,3.430156507661106,1.5743887338156333,6.012907307577789,2.510165357119182
29,1456704054654542,5.866560074743613,4.573403712001627,8.444939580225473,10.37291889429667,3.3221243933878437,1.5030999785204813,5.9124587918988984,2.4305496100844515
30,1456704054655542,5.930384690491587,4.5190880024820155,8.27814380303888,10.286465696164562,3.223864420200577,1.4349021316987667,5.792670359582565,2.3506496993831423
31,1456704054655542,5.997395578591727,4.480581467768271,8.137371444143298,10.2227648947027,3.137097223329696,1.370691143258231,5.654627283903623,2.271148322706824
32,1456704054658547,6.066597724831872,4.457425195474399,8.025238767438294,10.182117897576907,3.063248017319013,1.3112151697749628,5.499641451523465,2.1927093483965994
33,1456704054658547,6.136642476465817,4.448685109239115,7.94360503709964,10.1641381216687,3.0034268295735314,1.257075572664093,5.329274006020451,2.1159936010371116
34,1456704054666756,6.205879804940873,4.452994117587536,7.893563896112459,10.167813077828738,2.9584140978928253,1.208732299588132,5.145346495098313,2.041668915008913
35,1456704054666756,6.27242514850433,4.468605517869545,7.87545227413247,10.191579331825494,2.928653329986404,1.1665129576658544,4.9499386174322515,1.9704145461735119
36,1456704054675543,6.334237896325316,4.493457213624568,7.888878328025271,10.233411337757207,2.9142522387034733,1.1306246424838597,4.7453722416840804,1.9029203750615316
37,1456704054675543,6.389207128402126,4.5252458955246135,7.932768596674714,10.29092374635231,2.9149932364091637,1.1011674658617203,4.534182694568848,1.8398815999028835
38,1456704054688645,6.435239361063375,4.561509687307624,8.005432973342858,10.361485060535397,2.930353551725615,1.0781487516523547,4.319079105339423,1.7819897660365185
39,1456704054688645,6.470343186446851,4.59971693402119,8.104644543190478,10.442338824752781,2.9595346527181188,1.061497000611475,4.102895872346445,1.7299209688962713
40,1456704054698544,6.492706763045529,4.637358047057968,8.227729960779756,10.530726948862,3.001500125360249,1.0510749068960006,3.8885373561583205,1.6843219607622026
41,1456704054698544,6.500765509174484,4.672036863656767,8.37166498674284,10.624008371064344,3.05502058829661,1.0466909083066602,3.6789179835679793,1.6457948098521433
42,1456704054703748,6.493258355401761,4.701557871476759,8.53316927146757,10.719765537741795,3.118723600966903,1.0481089513589112,3.4769001146155203,1.614880770949601
43,1456704054703748,6.469271299089574,4.72400572608476,8.708794824886807,10.815891765416987,3.191145964417718,1.0550563282701304,3.285232111090141,1.592044093418908
44,1456704054719388,6.428267205141154,4.737813657452004,8.89500419250231,10.910654652058112,3.270785536963587,1.0672295827313605,3.106488881518984,1.5776565442189003
45,1456704054719388,6.370101355863457,4.741817749391679,9.088236959044062,11.002733735047846,3.3561497895145123,1.084298597047884,2.943016790135216,1.5719834253139962
46,1456704054727591,6.295023175837292,4.7352947991205445,9.284965864759268,11.091233483195241,3.445798676390712,1.1059090821332087,2.7968844120938643,1.575171805850868
47,1456704054727591,6.203665327593933,4.7179824473477865,9.481745518885463,11.175674692403572,3.5383798505808866,1.1316837897030771,2.6698403694743877,1.587241556903407
48,1456704054736098,6.097021572221701,4.6900813682130895,9.675257118774208,11.255968420168275,3.632654896760907,1.1612228369021138,2.563279365809587,1.6080795747841652
49,1456704054736098,5.976414608787843,4.6522403697919446,9.86235210782019,11.332377071690416,3.7275162105289823,1.194103573471516,2.4782173919061137,1.6374373450580844
50,1456704054749108,5.843455138161503,4.605526095469025,10.040096775354321,11.405467222352835,3.8219951959892144,1.229880438705319,2.415276812004168,1.674931793818738
51,1456704054749108,5.69999391086726,4.551379566400305,10.205818600745065,11.47605818595818,3.9152631746339983,1.2680852494248143,2.374681710321271,1.7200492602474153
52,1456704054759100,5.548069173793641,4.491562143409436,10.357153775370326,11.545169391108317,4.006626672750784,1.3082283136516704,2.356263565376426,1.7721524335543963
53,1456704054759100,5.3898521894924745,4.428093626656122,10.492094021642068,11.613968557434475,4.0955187880888415,1.3498006634785409,2.3594770017420954,1.830490173621502
54,1456704054765111,5.227593108065497,4.363185126685741,10.609029886109136,11.683721590857333,4.181488294387857,1.392277549353455,2.3834249547664546,1.8942101529974855
55,1456704054765111,5.063568585491703,4.299169166364618,10.706787364818503,11.755744229104513,4.264187966505238,1.4351231556364743,2.4268920636155045,1.9623741218605024
56,1456704054788392,4.900031617669278,4.2384293607282855,10.784655064211512,11.831355092971103,4.343363178171884,1.4777963181182854,2.4883846173733892,2.0339753394351607
57,1456704054788392,4.739163562569714,4.183331858178005,10.84239996807809,11.911830098741119,4.418841183098891,1.5197568964780972,2.5661751070585717,2.1079574829358902
58,1456704054789364,4.583028418533668,4.136160281146729,10.880270953686416,11.998358999067769,4.490520910230406,1.560472422739399,2.6583494810054833,2.1832342820397996
59,1456704054789364,4.433529880146392,4.0990551778158295,10.898989953503465,12.092005770101254,4.558362888759559,1.599424730838291,2.7628554718163603,2.2587092514700196
60,1456704054796102,4.292372139041038,4.073958244582411,10.899730740463305,12.193675138654537,4.622379101874317,1.6361164466894345,2.8775506306505556,2.3332950868770053
61,1456704054796102,4.161025681656031,4.0625611022849695,10.884084967253324,12.304087241064867,4.682622894612984,1.670077400888232,3.0002488222823933,2.4059324115668717
62,1456704054809329,4.040699484943768,4.066258399906678,10.854014795858742,12.423761100380931,4.739179294146556,1.7008711229834492,3.1287640108182857,2.47560756930214
63,1456704054809329,3.9323209790803095,4.086105435128783,10.811791456104956,12.553005732767796,4.792156192273499,1.728101548550986,3.260950412128664,2.541369099718062
64,1456704054819356,3.8365248186771366,4.12278103671334,10.75991960460269,12.691915971949625,4.8416767978051825,1.7514199450918873,3.394738486099337,2.6023424958136343
65,1456704054819356,3.7536508841193807,4.1765568923841805,10.701048748261938,12.840369181195975,4.887873579197509,1.7705318920683308,3.5281665339487422,2.657742875442116
66,1456704054824346,3.683751182919334,4.247274786879199,10.637875117749727,12.998019317151805,4.930883621618546,1.7852039943885496,3.6594077286382727,2.706885237257006
67,1456704054824346,3.626604678718868,4.334333347991308,10.573039398266268,13.164286314259723,4.9708449596747775,1.795269916426111,3.786792395878119,2.74919195429447
68,1456704054838621,3.58173879159325,4.4366858355476,10.509026755520226,13.338340802836935,5.007892978285832,1.8006352824057323,3.908825432410043,2.7841972232098486
69,1456704054838621,3.548456470341622,4.552850272205447,10.448075380273465,13.519085769428198,5.042155428460385,1.8012809567058181,4.024198867105059,2.8115485286162567
70,1456704054846622,3.525868096151933,4.680932892232215,10.392098701804612,13.705137566103113,5.07374434030506,1.7972642394221612,4.131799687107134,2.831005678639302
71,1456704054846622,3.5129276721903353,4.818665457488383,10.342624953753239,13.894809192454002,5.102743678087219,1.788717696625938,4.230713178916628,2.8424382505230974
72,1456704054855621,3.5084726683359784,4.963456335636475,10.300756086352452,14.086099413185721,5.1291930412992475,1.775845685321764,4.3202221329351955,2.8458222165533127
73,1456704054855621,3.51126668577157,5.112454284798099,10.267146218732803,14.276691641714008,5.153069321504302,1.7589189678587838,4.399802245935093,2.8412363131122587
74,1456704054868622,3.5200439367615064,5.262622745282313,10.241998219465541,14.463965956753267,5.1742690914338825,1.7382679838189508,4.469113934592283,2.8288585655754455
75,1456704054868622,3.5335543885230183,5.410821398079111,10.22507583929821,14.645025924548342,5.192594487098426,1.7142753363075727,4.527990636671205,2.8089632646868963
76,1456704054878623,3.550608196486054,5.553891165185247,10.215728093186142,14.81673951638622,5.2077449082243925,1.6873679335450384,4.5764236443860336,2.781918531386223
77,1456704054878623,3.570117715367402,5.688738883472075,10.212922311407096,14.975791393435182,5.219316315240028,1.6580090856839895,4.61454369883724,2.7481844160450235
78,1456704054883623,3.591135047566078,5.812418504270287,10.215282613782142,15.118743326511773,5.226809185004146,1.6266906932411267,4.642599938092181,2.708311265622216
79,1456704054883623,3.612882973822687,5.9222065557751495,10.221131585046443,15.242100662309175,5.229645261892324,1.5939254378493752,4.660937079839221,2.6629378404822805
80,1456704054898624,3.634777335013199,6.015670323723008,10.228534438771462,15.342384387895008,5.2271922710182155,1.5602386387880152,4.669971720873817,2.612788427913277
81,1456704054898624,3.6564395020948646,6.090727481795393,10.23534643261936,15.416209163149738,5.2187949250904415,1.5261593066199866,4.67016847707805,2.55866809340831
82,1456704054906664,3.6776984164724174,6.145695932516363,10.239265163533302,15.460367189251906,5.203809903860349,1.492210017075311,4.6620167272920545,2.501455277409565
83,1456704054906664,3.6985826206056536,6.179332893901375,10.237889503048619,15.471916285755446,5.181642004650086,1.4588955371761698,4.646009127220949,2.4420911897895077
84,1456704054916134,3.719303458181419,6.190863000547662,10.228786643922776,15.448268937640885,5.1517784030467295,1.4266905454864265,4.6226235560890565,2.381565893126797
85,1456704054916134,3.7402310434214936,6.1799960510620835,10.20956812726799,15.387278443825581,5.11381808250968,1.3960271305000254,4.592310299185253,2.3209015055447595
86,1456704054930131,3.761864702971939,6.146935493061928,10.177974537310002,15.287319098275416,5.067494143012524,1.367282908546534,4.555485868803458,2.2611333803733866
87,1456704054930131,3.784799489560382,6.092378552292238,10.131966763461687,15.14735867904617,5.012687791701451,1.3407705864973314,4.512534110708597,2.203290315850178
88,1456704054938636,3.809690186622329,6.017508269917331,10.069819863466565,14.967022012343087,4.949434018158049,1.3167296964485382,4.463814422668768,2.1483748673020178
89,1456704054938636,3.8372140900090335,5.923976996962492,9.990214130020558,14.746643625166325,4.8779199742523875,1.2953211141488752,4.409676187215228,2.0973447273037102
90,1456704054952637,3.8680338079096646,5.813880437077805,9.892316996436302,14.487306325874048,4.798477799040045,1.2766248334111026,4.350477961237052,2.0510958728546997
91,1456704054952637,3.9027613244261263,5.689721262211893,9.775848978479395,14.190862111689524,4.711574005191378,1.2606412674274812,4.286609665807471,2.010447766705522
92,1456704054958637,3.941924587582283,5.554361593315597,9.64112752889814,13.859932821565371,4.6177975653463665,1.2472960819773433,4.218516027944882,1.97613050653854
93,1456704054958637,3.9859378889313737,5.41096416418479,9.489084777053623,13.497890073878603,4.517848555749699,1.2364482801973755,4.146719658827536,1.948773666065181
94,1456704054966672,4.035077253560405,5.262922740864263,9.321257735396896,13.10881575321856,4.412528701909556,1.2279010087407047,4.071842090328714,1.9288967418126195
95,1456704054966672,4.08946187791935,5.113783200812476,9.139751446160583,12.697444511752535,4.302734512696512,1.221414380782321,3.9946207237801885,1.9169014166873806
96,1456704054975640,4.1490422794393735,4.9671573382707,8.94717670329205,12.269089201022368,4.18945301673042,1.2167195324796367,3.915919245239711,1.9130659845243423
97,1456704054975640,4.213595314834821,4.826631860739415,8.746565400435982,11.829550612897544,4.0737595803967945,1.2135331276501053,3.836729128167722,1.9175421443679683
98,1456704054988638,4.282725787039273,4.695675236264935,8.541268576334083,11.385014774439448,3.9568169892889324,1.2115715489838312,3.758160690853273,1.930354090000724
99,1456704054988638,4.355874149392021,4.577545099565785,8.334843978025958,10.941942824735685,3.8398748915019048,1.2105640418069432,3.6814235420726233,1.9513995480633852
100,1456704054998639,4.4323297339251075,4.475198909121632,8.130940439706384,10.506958813141793,3.7242687005866526,1.210264151706404,3.6077974966849062,1.9804522685034034
101,1456704054998639,4.511248761394891,4.39121060949849,7.933185515589592,10.086739820541794,3.6114170185380874,1.210458956895628,3.5385958310440855,2.0171655416503325
102,1456704055012640,4.5916760895955155,4.327696232381286,7.745081254118622,9.687911608981986,3.5028165312139734,1.210975788971192,3.4751232094397917,2.0610766146612685
103,1456704055012640,4.672569414842183,4.2862514743544855,7.569911368530703,9.316951881759383,3.400033153907457,1.211686266353846,3.418630907018365,2.111612220448004
104,1456704055019394,4.752824730891752,4.267904066367559,7.410661650238287,8.980101967200923,3.304688052492906,1.2125075159012964,3.370272063831502,2.1680955842725003
105,1456704055019394,4.831302392017825,4.273083157980925,7.269954359745078,8.683286454744593,3.2184373123220347,1.2134005204947487,3.3310596404521733,2.2297552232232736
106,1456704055027426,4.906853867029576,4.301607155491883,7.149996456991816,8.432039475161345,3.1429446873995057,1.2143656860000198,3.301829588406987,2.295735775536419
107,1456704055027426,4.978349662569155,4.352690654531451,7.052540901632542,8.231435995463748,3.079847802249216,1.2154359373092685,3.283211492020834,2.3651110871298093
108,1456704055035651,5.044708602923231,4.424970344342279,6.9788599888900995,8.086026226641726,3.030718895422298,1.2166678360032268,3.275608519797441,2.4368997591465353
109,1456704055035651,5.104927891257411,4.516549013544022,6.929729811266769,7.999770653143951,2.997021473723865,1.2181313226638684,3.2791879525744014,2.510083209469443
110,1456704055056652,5.158112640045159,4.625056089565117,6.905425309117608,7.975972522525311,2.9800642811474107,1.2198987429249397,3.2938828736755577,2.583626022832499
111,1456704055056652,5.2035031932288875,4.747722592392159,6.9057258829413986,8.01720456495013,2.980954008585382,1.222033823330372,3.319404822242182,2.6564980472671356
112,1456704055065653,5.240498662334874,4.881468001751253,6.929932050784056,8.12522784923148,3.0005482394753957,1.2245812123622315,3.355266380548526,2.7276974090896795
113,1456704055065653,5.268675552983466,5.022996198069281,6.976893789874037,8.300903147930004,3.03941024388797,1.2275571057595303,3.400811941613695,2.7962733598912584
114,1456704055072653,5.287800817409022,5.168897207044824,7.045050657458407,8.544098475372893,3.0977674171958283,1.2309413589553875,3.4552544313138225,2.861347616934883
115,1456704055072653,5.297838782638279,5.315751004285662,7.1324826212309755,8.85359948867646,3.1754753357404515,1.2346713758241643,3.5177155723926714,2.9221326839713635
116,1456704055078654,5.298951323044598,5.4602293210335064,7.2369691997856185,9.227031044978352,3.271989419740447,1.2386379822858162,3.587267294427494,2.977945713209552
117,1456704055078654,5.291490896126711,5.599191376431719,7.356053444173214,9.660798079260777,3.3863460399846965,1.242683477519621,3.6629719862411307,3.0282169340810627
118,1456704055086654,5.275986746797919,5.729769682433374,7.487106701877307,10.15005287795642,3.5171547212069014,1.2466020910212434,3.7439193938279094,3.072492465016565
119,1456704055086654,5.253125172404089,5.849442368529564,7.627390186045945,10.6886947181582,3.6626029083426084,1.2501430870037344,3.8292581453914076,3.110432108035691
120,1456704055095654,5.223724785709273,5.9560889029289665,7.774110386166652,11.26940690551326,3.8204743995153914,1.2530166857371507,3.9182201821360194,3.141803146989365
121,1456704055095654,5.188707435792366,6.04802693992426,7.9244672240693275,11.883735010981164,3.988181908222046,1.2549028201067356,4.010136736045334,3.166471170804249
122,1456704055108655,5.149065366851679,6.124029469717061,8.075695738296078,12.52220824064286,4.162813457534204,1.255462550429699,4.1044449409362604,3.1843887575195686
123,1456704055108655,5.105825450453902,6.183323211859708,8.225102935584564,13.174503500032834,4.341191680952926,1.2543517368418422,4.200684822821506,3.1955827744057013
124,1456704055119367,5.060011667219058,6.225570716936087,8.370101188346,13.829649048882844,4.519944658389689,1.25123633691155,4.298487235927799,3.2001412184078237
125,1456704055119367,5.012607343407925,6.250839538905871,8.508239013528106,14.476261700989802,4.695586498538553,1.2458085144035207,4.397553956799228,3.1982008084001023
126,1456704055133402,4.9645191001900795,6.2595621202076375,8.63722982206357,15.102808479358236,4.86460538695764,1.237802662400276,4.497631397363302,3.1899366284084962
127,1456704055133402,4.916544947209437,6.252489861056154,8.754979101993252,15.697881244048682,5.023556331013904,1.2270104472160004,4.598479429213982,3.1755548352245038
128,1456704055139368,4.8693490619981725,6.230644299641545,8.859610185933526,16.250472009678855,5.169155480131093,1.2132940431308294,4.699836989053985,3.1552889274336575
129,1456704055139368,4.82344535247446,6.195267486801589,8.949488333737134,16.75023761649067,5.298372727833536,1.1965968680105354,4.8013866257950095,3.129399569154621
130,1456704055147167,4.7791910881793696,6.147772777415132,9.023242650304818,17.187744391709916,5.408519318166064,1.176951337912292,4.9027208113840555,3.098177538208366
131,1456704055147167,4.7367909632040295,6.089696786831735,9.079785511182356,17.554685823989722,5.497327424570405,1.154483359555789,5.003313339269241,3.0619489521243866
132,1456704055156418,4.696311008488028,6.022653325889756,9.118329388499781,17.844068833913663,5.563019090185589,1.1294134132163192,5.102499138337167,3.0210815308655374
133,1456704055156418,4.657700842803874,5.948290413339529,9.138400756519783,18.05036632531437,5.604362253598122,1.1020541544634914,5.199465203999792,2.9759904362133214
134,1456704055169169,4.620822032618399,5.868251500017514,9.139850115198257,18.16963456217985,5.620711643321808,1.072804533162626,5.293254278290887,2.9271423233571556
135,1456704055169169,4.58548006005857,5.784141682724098,9.122856724214044,18.19959392953195,5.612032366078398,1.0421405527131633,5.382781735491891,2.8750566430082145
136,1456704055179169,4.551457519137671,5.697499122703693,9.087926774850246,18.139672207578567,5.578904539822442,1.0106029889723303,5.466865055875214,2.820303767697189
137,1456704055179169,4.518546340539147,5.609771297212011,9.0358840182457,17.99101101654414,5.522508418601124,0.9787826002017808,5.544264305196293,2.763499945462458
138,1456704055193399,4.486576960100083,5.522295225620454,8.967851741852803,17.756437252676704,5.444590618109267,0.9473035112622344,5.613731149630776,2.705299299733172
139,1456704055193399,4.455442631721723,5.436280632522875,8.885224715694424,17.44040095466771,5.347412773392845,0.9168055206836175,5.674063171514421,2.646383196177615
140,1456704055199364,4.425117639584613,5.35279531038648,8.789630236749574,17.048879595210515,5.233684259867092,0.8879260784671061,5.724159691121192,2.587447439389329
141,1456704055199364,4.395668661311327,5.27275258958972,8.6828790299512,16.589247644472458,5.106480867113324,0.8612826370466831,5.763075007410195,2.5291879518568368
142,1456704055207365,4.367258699995944,5.196901400987702,8.56690877092177,16.070110331347994,4.969151817103891,0.8374559880006295,5.790065038789803,2.4722856957793065
143,1456704055207365,4.340143062948581,5.125819536335692,8.4437242860634,15.501102031911554,4.825218221178207,0.8169750665068951,5.8046239074528945,2.417391559642501
144,1456704055216366,4.31465718461787,5.059910357679418,8.315338532478325,14.892652376708664,4.678266697546621,0.8003035627893229,5.806508103742571,2.365111833755788
145,1456704055216366,4.2911966559787915,4.999402847075503,8.183717582457895,14.255726492951792,4.531842174144017,0.7878285584668692,5.7957472850867795,2.3159948349400796
146,1456704055229178,4.270190412587048,4.944355006967087,8.050731849805464,13.601548991101058,4.38934382697084,0.7798513244666304,5.772642149223241,2.270519189377396
147,1456704055229178,4.252068615347787,4.894661053178514,7.918115313680283,12.941323362106985,4.253927766277928,0.7765803807377581,5.737750894466557,2.229084195061459
148,1456704055239184,4.237227345157007,4.85006295253319,7.787434481202316,12.285958896667347,4.128419654284015,0.7781269107190052,5.691866428728963,2.192002581883318
149,1456704055239184,4.2259926554976195,4.8101664201296135,7.660068745739355,11.645816489354763,4.015240042029385,0.7845026091550887,5.6359867317721735,2.15949592120887
150,1456704055253364,4.218586646026809,4.7744609181742605,7.537203176643693,11.030483260085177,3.9163448444833615,0.7956199898606621,5.571280752768399,2.131692923347425
151,1456704055253364,4.2150981181845575,4.7423428966637475,7.4198336665652675,10.448583805503072,3.8331829224374974,0.8112950914512798,5.499052107110186,2.10863086548236
152,1456704055259185,4.21546017156591,4.713141479014007,7.308783176438187,9.907633034273891,3.7666721348479215,0.8312524306199818,5.420702628343412,2.0902603457792015
153,1456704055259185,4.219436763766641,4.686145836061203,7.204726846913841,9.413932348055186,3.717194517297283,0.855132009785346,5.337697435329559,2.0764533964073313
154,1456704055267185,4.226619676249906,4.660633540231941,7.1082229926713225,8.972508052164825,3.6846105087448624,0.8824981975258658,5.251532670348593,2.067014713535744
155,1456704055267185,4.236436518612309,4.635899250174404,7.019746361748052,8.587088833213189,3.6682913939649637,0.9128503306747144,5.16370669282611,2.061695472927799
156,1456704055282185,4.248169575403819,4.6112830412135875,6.939719541936839,8.260118118697449,3.667168325598831,0.9456349005463268,5.075695342044368,2.0602089877542618
157,1456704055282185,4.260984657315523,4.586197426809363,6.868538272700174,7.992796889684723,3.6797954312864096,0.9802591700613761,4.988931662160263,2.0622473057800788
158,1456704055289186,4.273968591633499,4.560151705115438,6.806587023566108,7.7851524714570814,3.704423641296704,1.0161060140035438,4.904789927337968,2.0674976693284504
159,1456704055289186,4.286173316231764,4.532772091252471,6.754242705337029,7.636128525779736,3.7390811562368893,1.0525496691204,4.824572944544944,2.0756576485706577
160,1456704055299186,4.296663652845764,4.503816460732872,6.711866561588679,7.543691037245257,3.7816561931920276,1.088971938866552,4.7495008072174665,2.0864478766565644
161,1456704055299186,4.3045650530816735,4.473183264592176,6.679786518686001,7.504945106767911,3.8299780120644447,1.124778281010435,4.680698898036874,2.0996216719839937
162,1456704055313188,4.30910747499933,4.440914773930438,6.65827385918834,7.516258175535878,3.8818931762675644,1.1594131944294488,4.619183177073594,2.11497124894022
163,1456704055313188,4.309662316784143,4.407195038810573,6.6475186463572395,7.573386493112212,3.9353351903094507,1.1923744311522686,4.565841689885639,2.1323305589520163
164,1456704055319195,4.305770656959739,4.372343107138103,6.6476078827717995,7.671602459362359,3.9883865777125997,1.2232257015867083,4.521412616937065,2.1515750441965076
165,1456704055319195,4.297162342319699,4.336802424671109,6.65850920775098,7.805820686528724,4.039332747884151,1.251607610716705,4.486460498584305,2.172618711825537
166,1456704055327195,4.283766462721989,4.301127693376195,6.680061416375989,7.970720761890506,4.0867066927645945,1.2772465684079441,4.461352901774714,2.195408969996995
167,1456704055327195,4.2657144194658345,4.265970420782705,6.711971623951824,8.160865274224392,4.12932313811201,1.2999614448212684,4.4462396987337796,2.2199197083494426
168,1456704055342201,4.243337006723688,4.232063983457666,6.7538178156769835,8.370812585008016,4.166300867797661,1.319667824260056,4.4410367348598685,2.246143206879578
169,1456704055342201,4.217156649078469,4.2002085931553585,6.805054929150184,8.595224538402704,4.197072757574854,1.336379788522117,4.4454152710786365,2.2740815458153225
170,1456704055349201,4.187875433083145,4.1712562857494415,6.865022515160077,8.828969440110663,4.221384121210463,1.3502091667265572,4.458798178026513,2.3037381618549344
171,1456704055349201,4.156359147776197,4.1460958855252885,6.932952433618613,9.067220218475285,4.239280613628632,1.361362127718641,4.480363399583026,2.335110010620916
172,1456704055359201,4.123617322193377,4.125637695848353,7.007975878738282,9.305547054815893,4.251087071874212,1.370132933079079,4.509054788149933,2.3681804849650128
173,1456704055359201,4.090779202902064,4.110797378485279,7.089129895455559,9.540003352281406,4.257378764267799,1.3768946751616744,4.543600149754347,2.402912928846569
174,1456704055373202,4.05906570371233,4.102478207426327,7.175364019845981,9.767203799148582,4.258946799624608,1.3820869221236183,4.5825362305615425,2.439244469966891
175,1456704055373202,4.029757499983548,4.101550854364447,7.265547724852658,9.984393139725807,4.2567596769592555,1.3862004010158848,4.624240343696427,2.4770800812433835
176,1456704055379203,4.0041595804654735,4.1088302784498785,7.358479267667622,10.189503762817782,4.251922861269601,1.3897591590809648,4.666968262441382,2.516287151590095
177,1456704055379203,3.983562752252709,4.125050059918376,7.452896540122172,10.38119941802255,4.245637889280871,1.3933009532460188,4.708897839573457,2.5566911403853845
178,1456704055387203,3.9692028675672626,4.1508352154036,7.547490686403586,10.558901580835526,4.2391620339710085,1.3973567914817306,4.7481775966986195,2.598072950475319
179,1456704055387203,3.962218871338748,4.186674779415499,7.640923489680203,10.722794361584105,4.2337690958284675,1.402430531789857,4.78297929981455,2.6401685116720146
180,1456704055402204,3.9636110802366082,4.232895278521174,7.731849514904437,10.873803362104496,4.2307114458665716,1.4089792940864487,4.81155324517198,2.68267081647725
181,1456704055402204,3.9742013501680495,4.2896360002884,7.818943389747791,11.013543813396941,4.231183068659527,1.4173952555618232,4.832284578250008,2.725234358821464
182,1456704055409205,3.994596955304872,4.356826863997307,7.900931513426923,11.144234517642928,4.236283195624052,1.4279892557168792,4.843748495753733,2.767481656528197
183,1456704055409205,4.025160061811267,4.434169689676815,7.976626452528303,11.268577140184947,4.246980294842957,1.44097659317081,4.84476165176352,2.8090113476964627
184,1456704055418760,4.0659845739703595,4.521123655960775,8.044961819401925,11.389604572431018,4.264076626124633,1.4564654823218004,4.834426530574167,2.8494072353209114
185,1456704055418760,4.116881788352328,4.616895739056867,8.105025610781777,11.51050591656224,4.288174070438424,1.474448777747204,4.812165268351991,2.8882475774755902
186,1456704055433232,4.177375698174109,4.720436980421574,8.15609051650894,11.634438116253277,4.319642321199383,1.4947996118038447,4.7777399686289215,2.9251139270362922
187,1456704055433232,4.246708056398825,4.83044554705029,8.197640276971137,11.764335271034373,4.358590749890726,1.5172714470062307,4.731258160100591,2.9595990088346955
188,1456704055439233,4.3238526428349395,4.945377661703779,8.229391681952666,11.902726466974814,4.40484542549435,1.541502789155392,4.673164038653452,2.991313463215989
189,1456704055439233,4.4075377550280574,5.063467478465944,8.251312253908269,12.051571761830948,4.457932973535775,1.5670265693790555,4.604217576712179,3.0198916261195343
190,1456704055447233,4.496275759393726,5.18275674283488,8.263633902442882,12.212124119829056,4.517073185467187,1.5932840494699256,4.525464204102496,3.044996728389267
191,1456704055447233,4.588398464299213,5.301134531621096,8.266862715974215,12.384823091254654,4.581182359501591,1.619642983240662,4.438197947073146,3.066325971221319
192,1456704055462242,4.682097002258289,5.416386535619639,8.261784633350723,12.569224301865566,4.648889040272769,1.6454195649575942,4.343920883215725,3.0836159017011586
193,1456704055462242,4.775464899274671,5.526252343442694,8.249466240079709,12.763967480950981,4.718563015782561,1.6699033691096306,4.244301382818678,3.0966483978043247
194,1456704055469234,4.8665432173108405,5.628488194626879,8.231249534954548,12.966784582435308,4.788357235875321,1.6923841170177334,4.141132816563741,3.1052574225019893
195,1456704055469234,4.953367038708095,5.72093194495823,8.208739264497108,13.174548199887402,4.856261027429845,1.7121788488334502,4.036293488771655,3.109336539276057
196,1456704055479234,5.034012819950889,5.801566791833092,8.183781356979917,13.38335886663876,4.920161969483461,1.7286580411044035,3.931707805487165,3.1088469092410738
197,1456704055479234,5.1066460440332415,5.868580719899246,8.15843117112974,13.588668257786896,4.977913369650663,1.7412693614456376,3.8293081984931865,3.103825010802177
198,1456704055492235,5.169568241465183,5.920419380700331,8.134910646083158,13.7854340782798,5.027404463088308,1.7495579669800345,3.7309970960208267,3.0943887271924795
199,1456704055492235,5.22126206519015,5.955830784510536,8.115553791123387,13.968301421990736,5.066630832124843,1.7531824562220568,3.6386082955114722,3.0807400697308513
200,1456704055500236,5.260432751184464,5.973900520913018,8.102740337630973,14.131804258010215,5.093762659425637,1.7519258043877697,3.5538674038153313,3.0631629746466182
201,1456704055500236,5.286043913180857,5.974076369626454,8.098818223852772,14.270579384724043,5.107208305932031,1.7457008822073725,3.478351363691894,3.0420153329670185
202,1456704055507236,5.297345364337508,5.9561814833691225,8.106017076564076,14.37958401301604,5.105670840868864,1.7345504670646161,3.413447371996637,3.0177153509177836
203,1456704055507236,5.293890947919242,5.920416036638962,8.126356480818066,14.454307454795144,5.0881958874219055,1.7186420059559564,3.3603118342775704,2.9907231420741582
204,1456704055522242,5.275545437363277,5.867348124924054,8.161553840724695,14.490967477342084,5.054210203092513,1.698257766530457,3.319830536507539,2.9615190193340157
205,1456704055522242,5.242481108633042,5.7978953369465875,8.212936711324286,14.486682867019066,5.003551116287651,1.6737813114450095,3.2925819225563706,2.9305803410910203
206,1456704055528743,5.195165853934455,5.713298570343543,8.281363884938823,14.439615287866348,4.936486874063202,1.6456813543209194,3.2788060515287447,2.898358957143203
207,1456704055528743,5.134345152389488,5.6150893973711975,8.367158808855839,14.349074816608399,4.85372730549046,1.614494031585571,3.278382193139064,2.8652612088027802
208,1456704055538253,5.061019945564982,5.505051902323009,8.470058551925119,14.215584119236253,4.756423545453703,1.580804547552475,3.290817907344814,2.831632087537471
209,1456704055538253,4.97642199825776,5.38517971930183,8.589181491814125,14.040896690094407,4.6461553910752516,1.5452290576414813,3.3152518739156362,2.7977446971412236
210,1456704055552254,4.881987963456332,5.257629067001319,8.723016632524084,13.82796596164899,4.524905259166976,1.5083975377327674,3.3504718604384616,2.7637957062779135
211,1456704055552254,4.779333019398702,5.124668726036101,8.86943657546319,13.580864614960166,4.395018382221616,1.470938258441946,3.39494820841406,2.7299070352104153
212,1456704055561256,4.670224456535069,4.98862806737837,9.02573491935597,13.304656192580257,4.259149499163178,1.433464352636517,3.4468822064577287,2.696133591531417
213,1456704055561256,4.556555034176422,4.8518445472641565,9.188687794916477,13.005223500736422,4.120196817589911,1.3965627944057903,3.504267816284364,2.662476470116542
214,1456704055566255,4.440315463439227,4.716612459432994,9.354638367456506,12.68906077307112,3.9812246371519455,1.36078586072438,3.564964465844365,2.628900670560124
215,1456704055566255,4.323565051627498,4.585134834797879,9.519601995201887,12.36303959416018,3.8453768367786068,1.3266448712112264,3.6267779810163994,2.5953560803316624
216,1456704055582362,4.208399378125723,4.459480101906379,9.679388177645846,12.034161207720361,3.7157842554941016,1.2946058047550817,3.687546115422079,2.561800273520322
217,1456704055582362,4.096914023401876,4.341544780914002,9.829734047549346,11.709308680546133,3.595469547827011,1.2650863341564698,3.745224514130552,2.528221622786528
218,1456704055589256,3.9911640075871215,4.233023301436346,9.9664436431794,11.395011377421325,3.4872532911015908,1.2384538658344855,3.7979683531025055,2.4946613134308935
219,1456704055589256,3.8931195953620814,4.135385855735247,10.085527539164069,11.097232340263085,3.3936650972272284,1.2150242471585597,3.844204530185724,2.4612330400056246
220,1456704055599257,3.8046201148132694,4.049864794613013,10.18333790404939,10.82118714984201,3.316863331476467,1.1950608701671765,3.882689497852347,2.428139342041012
221,1456704055599257,3.7273280742338675,3.9774494188855876,10.256694025452084,10.571200684852865,3.258566697593318,1.1787739680827811,3.91254889681962,2.3956835412613096
222,1456704055612258,3.6626859964514136,3.9188882636598783,10.302992837132425,10.350605860854703,3.2200003422174595,1.166319993086925,3.9332969458212967,2.3642760848608733
223,1456704055612258,3.611878079754045,3.874697366841119,10.320298713151834,10.16168622193908,3.201858379647864,1.1578010735874955,3.9448355299336217,2.3344340607153793
224,1456704055620798,3.5757982368035406,3.8451728083021304,10.307407506549595,10.005662431030354,3.204284066975949,1.1532646382658873,3.947434580271307,2.3067730465039094
225,1456704055620798,3.555025488355068,3.8304060359242227,10.263881586237424,9.882721144247967,3.226868354298057,1.1527033332099155,3.941696509868526,2.2819912781067835
226,1456704055634289,3.549807245617559,3.830300880266469,10.190054915629268,9.792083203724122,3.268667058235059,1.156055355791358,3.9285082920483356,2.2608470290241955
227,1456704055634289,3.5600507514631405,3.8445913488799763,10.087009412262235,9.732106638059149,3.3282362874699514,1.1632053098161506,3.908985283692509,2.244130734489978
228,1456704055641285,3.585322820171636,3.872859205441307,9.956525556156878,9.700418980659308,3.40368497683735,1.1739856630135785,3.8844110311533075,2.232633674665719
229,1456704055641285,3.6248578967397402,3.9145502191717774,9.801011363441992,9.69407289211253,3.4927426000285546,1.1881788617852833,3.856177047665271,2.227115051759616
230,1456704055657286,3.6775743038402,3.968988105618855,9.623414635851267,9.709718473145628,3.592839455021517,1.2055201367206994,3.8257260057664695,2.2282692018268464
231,1456704055657286,3.7420984640224986,4.035385642580026,9.427124071957854,9.743784570775118,3.701196343348269,1.2257010234910821,3.794501041929972,2.2366945787412895
232,1456704055659285,3.816796907619952,4.112853049408993,9.215865083856198,9.792659973697075,3.81491990327767,1.2483736097831157,3.763903022223892,2.2528660317824794
233,1456704055659285,3.8998158109224503,4.200404203670951,8.993595506026574,9.852864216237503,3.9310993050662346,1.2731554595630907,3.735256742072808,2.2771116717690423
234,1456704055672371,3.989127488556802,4.29696152261422,8.764404961908811,9.921197540106398,4.046899643954358,1.299635052100297,3.7097861474710867,2.3095952501515877
235,1456704055672371,4.082582766890938,4.4013604320833295,8.53242016792319,9.99486112622023,4.15964742775043,1.3273774709236805,3.688597795752045,2.350304572231548
236,1456704055680287,4.177967663204716,4.512354398414869,8.301717350711037,10.071541764109563,4.266904215412233,1.3559300884749639,3.672671015979802,2.399046160689604
237,1456704055680287,4.273062327548588,4.62862150395842,8.07624223837286,10.149458207950987,4.366525591389507,1.3848281409702796,3.6628527360858114,2.4554461950548077
238,1456704055694293,4.365699708294564,4.748773387983015,7.859737739370888,10.22736851655036,4.456703827539729,1.413600268088505,3.6598548854269835,2.518957594894398
239,1456704055694293,4.453820932174963,4.871367034229023,7.655679469355712,10.304539413061521,4.535993483548762,1.4417741670673934,3.6642526797875647,2.5888729131985846
240,1456704055701293,4.535524200713595,4.994919514321468,7.467219520287589,10.380681341745465,4.603319972108944,1.468882462446013,3.6764826659234275,2.6643424615102314
241,1456704055701293,4.609104393555759,5.117925518847485,7.297138952310733,10.455856134773152,4.657972025748543,1.4944688196043237,3.6968397579362167,2.7443968596957466
242,1456704055717808,4.673081669146167,5.238877375046738,7.147809371916507,10.530366658871667,4.699579973099411,1.5180943107137954,3.7254725974919087,2.827973023102458
243,1456704055717808,4.726218973421799,5.356287345893494,7.021163851866149,10.604638896551746,4.728082473491908,1.5393440456094416,3.7623767965011634,2.913942425769292
244,1456704055719808,4.767529943575067,5.468712330850928,6.918677454348802,10.67910701619197,4.743684751518865,1.5578340335659535,3.807386296872733,3.0011402955879207
245,1456704055719808,4.796279632108249,5.574781403335061,6.841357608202678,10.754111360020088,4.746811534521211,1.573218137572137,3.86016399737061,3.088394329149592
246,1456704055731310,4.811980625880041,5.673226629193997,6.7897443706808005,10.829817819566426,4.738057911569449,1.5851948731285777,3.920193384390052,3.1745517166410804
247,1456704055731310,4.814386756324176,5.762917202696569,6.763920094884972,10.906164807045183,4.718141131895269,1.5935137247979587,3.9867728484984264,3.2585037020983663
248,1456704055741371,4.803485982910624,5.842896145228261,6.763527329523285,10.982841212560764,4.687855913098115,1.597980619328708,4.059013850163025,3.3392072872348275
249,1456704055741371,4.779493355705229,5.9124177761183745,6.787793194292746,11.059295620688134,4.648035263243534,1.5984622292519388,4.135843491666572,3.415703744787738
250,1456704055755406,4.742844307522208,5.970983184990721,6.835558413515788,11.13477397621724,4.599518257154292,1.5948888948871969,4.21601168047297,3.487133413919812
251,1456704055755406,4.6941878558723005,6.018370295376616,6.905309890233351,11.208380225510597,4.543125612390018,1.5872560874318016,4.298103139878271,3.55274620723054
252,1456704055764319,4.634378525776276,6.054654867616955,6.995216846497717,11.279152406557362,4.479643189264626,1.5756243975217998,4.380554962226539,3.6119076497674842
253,1456704055764319,4.564465033388606,6.080219010046479,7.103171376478799,11.346145206175095,4.409812733940776,1.5601180093433569,4.46168077955191,3.664100906265432
254,1456704055778371,4.485673347195975,6.0957447249108005,7.226834297261181,11.408509360345914,4.334328549146801,1.5409216199381621,4.539702530420956,3.70892568129957
255,1456704055778371,4.399382023515864,6.102191722090378,7.363686759973891,11.465559022937214,4.253838619908707,1.518275891873677,4.6127902155807625,3.7460948824384186
256,1456704055780364,4.307088757691212,6.10076057813431,7.511087776138635,11.516820588038666,4.168949114227285,1.4924717489917658,4.679109208601093,3.7754296677443695
257,1456704055780364,4.210368609083747,6.092843675757691,7.66633769106081,11.56205959757757,4.080231827357411,1.4638440051144312,4.736873832735247,3.7968531802439367
258,1456704055792374,4.110825862607882,6.079967221227067,7.8267472789229,11.601285117087334,3.988234581704877,1.4327648619989357,4.78440520707161,3.810383016871859
259,1456704055792374,4.010042550703414,6.063728201337865,7.989711165578192,11.634732966223448,3.8934945681492286,1.399637726324812,4.820190946785728,3.816122347548198
260,1456704055801402,3.9095270890556453,6.045730251291237,8.152782707335703,11.662830807859914,3.7965542168499593,1.3648916151692465,4.842944095800044,3.8142496255327574
261,1456704055801402,3.810666335128338,6.027521854288804,8.313745715733688,11.686149539447433,3.697978694907431,1.328976174523505,4.851658430219591,3.805006965746995
262,1456704055815320,3.714683831947272,6.010539313461604,8.470677262679668,11.705346569602597,3.5983737330040815,1.2923570703811589,4.845656931819919,3.788687405633047
263,1456704055815320,3.6226062455877757,5.996056013085149,8.62199574797791,11.721107109170937,3.4984022267918093,1.2555113172863073,4.8246299918547955,3.7656213463250054
264,1456704055822367,3.53523922712245,5.985138886366835,8.766489266740049,11.734089147689348,3.398797963163832,1.2189220665044844,4.788660027121297,3.7361625422763667
265,1456704055822367,3.4531532639836637,5.978612681926805,8.903320552679551,11.744876238031367,3.3003749428091074,1.1830724925057448,4.738229910446415,3.7006741437686608
266,1456704055838485,3.376679605311016,5.977032478680732,9.032006494290293,11.75394027488067,3.2040311299896933,1.1484386510780622,4.674214029064769,3.6595155319703614
267,1456704055838485,3.3059160418815563,5.980664942176436,9.15237297905933,11.761615068328835,3.110745983091359,1.1154814721105353,4.597852564036618,3.61303094081768
268,1456704055839334,3.2407420797587605,5.989478963364119,9.264489216942081,11.76808082410996,3.0215716446310035,1.0846382887811132,4.510711134210044,3.5615409552351105
269,1456704055839334,3.1808427373090304,6.003146369272853,9.368588128628398,11.773358963590429,2.937618035667244,1.0563143900573164,4.4146289298256605,3.5053377933645824
270,1456704055852335,3.1257398070535234,6.021053242994798,9.464979784359711,11.777315596019884,2.860032263686516,1.030875006074903,4.3116589315512055,3.4446848812631696
271,1456704055852335,3.074829052242811,6.042322041646518,9.553963917935558,11.77967086548443,2.7899728286295185,1.0086379705212318,4.204003895183849,3.379820750166164
272,1456704055860492,3.0274215478535984,6.065844091158036,9.635746709329759,11.780011268044733,2.728579286811474,0.9898671305693107,4.0939514921037405,3.310966817119735
273,1456704055860492,2.982787289521502,6.090321177560194,9.710367002802133,11.77780318022869,2.6769384101917812,0.9747664480679279,3.9838113538954594,3.2383382100316807
274,1456704055875336,2.940199279800138,6.114314146834648,9.777637352412635,11.772407439677732,2.6360483320615398,0.9634746994832588,3.8758559281588902,3.1621565478693334
275,1456704055875336,2.8989764245170933,6.136295996658797,9.837104909032146,11.763095788191078,2.606782425426603,0.9560607595135306,3.7722662431573366,3.0826635170023726
276,1456704055882337,2.858523562023877,6.154706862183185,9.888035928419662,11.749070177013433,2.5898545967044675,0.9525196056228736,3.675083069726595,3.000134115010759
277,1456704055882337,2.8183668204908146,6.1680083322167185,9.929425880669418,11.729485890958287,2.5857874448965563,0.9527693215625352,3.5861635750425536,2.9148884806656126
278,1456704055897337,2.7781824750976605,6.1747346312008276,9.960035131792354,11.703479290881686,2.5948845269526952,0.9566494627167677,3.507143341453683,2.8273013331816768
279,1456704055897337,2.737817760058511,6.173538437474567,9.978448243986087,11.67020036236076,2.617207809465172,0.9639211976131283,3.439403623465719,2.7378082710483
280,1456704055899337,2.69730265724457,6.163229448033313,9.983153403243195,11.628849293966185,2.6525612154157496,0.9742696629369573,3.38404399309374,2.646908474796474
281,1456704055899337,2.656852285615596,6.142804207642455,9.972637388098004,11.57871561495403,2.7004809913053687,0.9873089176365474,3.3418609358665172,2.5551636030465272
282,1456704055912337,2.616859924497744,6.1114662882777315,9.945490436189543,11.519218284428117,2.7602334488042164,1.0025897340146703,3.31333322649639,2.4631928316308493
283,1456704055912337,2.577881003538252,6.068636717014013,9.90051398763438,11.449945138833842,2.830820469184764,1.0196102589453933,3.29861487406775,2.3716641308568303
284,1456704055920852,2.5406088858653595,6.013955510586877,9.836823067249943,11.370689768748129,2.910993002198125,1.0378293605809978,3.2975361322592676,2.281282114762366
285,1456704055920852,2.505844003896526,5.947276036629968,9.753935109734037,11.28148317800922,2.9992726457794996,1.056682264742513,3.3096126847799727,2.1927731689108017
286,1456704055935366,2.474458518448074,5.868654449122737,9.651838698597539,11.182616885163867,3.0939812167439285,1.0755979047076,3.3340627991455514,2.1068689540316496
287,1456704055935366,2.4473588364225054,5.778336544992761,9.5310379576686,11.074653960265316,3.193277990838012,1.0940172923520652,3.3698320463967586,2.0242895791659716
288,1456704055941368,2.425448093739528,5.676744124476893,9.392570110781742,10.958425190136056,3.2952040293222917,1.111412173511827,3.41562504103912,1.945727616188053
289,1456704055941368,2.4095903303591304,5.564462462256343,9.23799530982439,10.83500919802175,3.3977327133545967,1.1273032237711886,3.46994350126659,1.8718337547242987
290,1456704055957362,2.400577687455691,5.442229953478167,9.069360140505996,10.705697596737581,3.498825200752342,1.1412770395131466,3.5311298018091093,1.8032044523215396
291,1456704055957362,2.3991015477092397,5.310930460518474,8.889139067934554,10.571948491900962,3.5964889409484657,1.1530011701445566,3.5974151247709805,1.7403715833752629
292,1456704055959363,2.4057281185609365,5.171588389451857,8.70016025897503,10.435333298763892,3.688836731880286,1.162236429006457,3.6669712284961418,1.6837939166380056
293,1456704055959363,2.4208785901202297,5.025366111939994,8.505522844777316,10.297482660242169,3.774143387445979,1.1688457597920645,3.73796465907929,1.633850248858896
294,1456704055971363,2.4448137885493204,4.873563000449149,8.308511861568745,10.160037206043372,3.850897188284567,1.1727990860944335,3.80861195180738,1.5908341223351876
295,1456704055971363,2.477623250774244,4.71761498186352,8.112515459641473,10.024607970727397,3.9178437984430525,1.1741738275386595,3.8772341030011983,1.5549501798003103
296,1456704055980363,2.519218801212389,4.559093143622275,7.920947104708152,9.892749674919548,3.974020781163034,1.1731510329001744,3.9423083959682192,1.5263122991323466
297,1456704055980363,2.5693328480673507,4.399699699514127,7.737173735938725,9.765948115261308,4.018780943759402,1.170007277966438,4.002515582640973,1.5049436505125584
298,1456704055995393,2.6275216090891287,4.241259691316387,7.564449305648636,9.645620831464788,4.051802725231851,1.1651026139508487,4.056780524050245,1.4907787075700072
299,1456704055995393,2.6931733348399374,4.085707173893606,7.4058520359501445,9.533128043992322,4.073086255061528,1.1588650010404862,4.104304730094956,1.4836670569928312
300,1456704056001369,2.7655213939106735,3.9350651939954946,7.264223546466606,9.429788716733027,4.082934783413968,1.1517718624783064,4.144589759193474,1.4833786647624194
301,1456704056001369,2.8436618693478404,3.79141952296116,7.1421089575642736,9.33689508137426,4.081922482889096,1.144329600532585,4.177450993428375,1.4896101473923864
302,1456704056026156,2.9265751389648282,3.6568867571718324,7.04169864541877,9.25571885071035,4.070850563477185,1.1370520342882686,4.203021783910766,1.5019916105327058
303,1456704056026156,3.0131508111593917,3.5335779062237487,6.964773614793324,9.1875038513439,4.050694212496183,1.130438723278352,4.221748322450898,1.5200937564091936
304,1456704056028193,3.1022153260927396,3.4235587869547697,6.912657052023337,9.133442287449279,4.022543463218637,1.1249540947741945,4.234375742283379,1.543435166474388
305,1456704056028193,3.192561450878466,3.328808459252528,6.886174827336393,9.094634549134573,3.987541753458342,1.121008252343544,4.241925729485307,1.5714898387292964
306,1456704056031501,3.2829787908520367,3.251176802069298,6.8856278579054635,9.07203508314424,3.9468262588291996,1.1189402889276223,4.245665355898176,1.6036951315638814
307,1456704056031501,3.3722843074033344,3.1923423039777012,6.910779166737761,9.066389117150216,3.901473815434777,1.1190048140181676,4.247066289183046,1.639460241332595
308,1456704056040505,3.459351663915711,3.153771172256302,6.960857832098634,9.078166491940516,3.8524555381905308,1.1213622234356573,4.24775355189009,1.6781752771421932
309,1456704056040505,3.5431380801630663,3.1366788027889694,7.034580732156155,9.107499242342348,3.800602375996578,1.1260730113737178,4.249443871132804,1.7192209441818582
310,1456704056054706,3.622707384275912,3.141994485566099,7.130191312852921,9.154129222792374,3.7465829768031123,1.1330961779882653,4.253875068328337,1.7619787941784935
311,1456704056054706,3.697248124966805,3.1703300420741183,7.245513066436546,9.217371495428079,3.6908944384122697,1.1422915713049335,4.262729269184132,1.805841916658028
312,1456704056062506,3.7660858467559835,3.2219529620539347,7.378014605569822,9.296098457571858,3.6338658497432434,1.153425868954997,4.2775536169297235,1.85022587180782
313,1456704056062506,3.8286889319704027,3.2967645316689467,7.524883367717767,9.388748516573678,3.5756739538081965,1.1661818581383039,4.299682622155318,1.8945796694453865
314,1456704056077702,3.8846679105209154,3.394283420608051,7.683105549641671,9.493361319402885,3.5163697025253753,1.1801706686497961,4.33016629394729,1.9383966287605172
315,1456704056077702,3.933768872527658,3.5136352149170405,7.849550029106291,9.607639180004618,3.455913919456337,1.194946603075716,4.369707812162663,1.9812249047574573
316,1456704056079507,3.9758623739488543,3.653548408785889,8.021053560397991,9.729031809487275,3.394219827073411,1.210024157727544,4.418613925859702,2.0226773457062883
317,1456704056079507,4.010929672559592,3.812357366502372,8.1945039490647,9.85483928159485,3.331199876868532,1.2248967290786852,4.4767607198807475,2.062440260772435
318,1456704056100847,4.039048120219622,3.9880127611513836,8.366917787256385,9.982326658882206,3.2668140676572883,1.23905637266743,4.543576890529049,2.100280711136346
319,1456704056100847,4.0603772306157415,4.178100034060585,8.535509762886136,10.108842762695758,3.2011166210528152,1.2520138544035107,4.618046078935101,2.1360520887222796
320,1456704056102509,4.075146613936556,4.379866466510876,8.697751257157757,10.231934908606656,3.1342974853466137,1.2633181224728163,4.698729061718077,2.1696979497709847
321,1456704056102509,4.083646697712794,4.590257431962936,8.851416567679532,10.349450859604941,3.066714880558424,1.2725742459874319,4.78380572389092,2.201254245188635
322,1456704056115528,4.086222805638299,4.80596223533473,8.994615474208965,10.459618978151237,2.998915367431833,1.2794588595647223,4.871135768987724,2.2308501572353885
323,1456704056115528,4.083272634708277,5.023469589538051,9.125811193480153,10.56109842442733,2.9316389512359264,1.2837322752738292,4.958336075856402,2.25870763877728
324,1456704056122035,4.075246495495603,5.239132246662039,9.243823579091819,10.65299417011466,2.8658082962565103,1.2852466825449187,5.04287155981206,2.2851394418466433
325,1456704056122035,4.0626490379163265,5.449239719519329,9.347819039767375,10.734836309292188,2.8025027307862067,1.2839501912317772,5.122155467980113,2.3105450176529896
326,1456704056137896,4.04604083813481,5.650097500154303,9.437290550815003,10.80652796938132,2.7429190372395795,1.2798867764818231,5.193654363545767,2.3354033522578628
327,1456704056137896,4.026038383592222,5.838110743192939,9.512032294590295,10.868269455907148,2.6883219935984184,1.2731923782122787,5.254992640644082,2.3602617327077584
328,1456704056139617,4.00331162036848,6.0098701337362,9.572113427566775,10.920467863403363,2.6399882355213773,1.264087513362263,5.304051079661159,2.3857196680435715
329,1456704056139617,3.9785789567210252,6.162237663338411,9.617854565918948,10.963641849300664,2.5991471546806864,1.252866842971763,5.339053556331552,2.412407654300988
330,1456704056151917,3.952600002920725,6.292430085389449,9.649809230870138,10.998330894218437,2.5669222445921736,1.2398862019972514,5.358635902281546,2.440961091569773
331,1456704056151917,3.9261662205836494,6.39809759812301,9.66875084472558,11.025017084204482,2.544275732139025,1.2255476186176668,5.361891873355402,2.4719903727980648
332,1456704056160618,3.900089322399392,6.477394780989772,9.675664006854676,11.044065455932378,2.5319587200892184,1.2102828664106653,5.348393549827414,2.5060488453791923
333,1456704056160618,3.8751871246845533,6.529040278611233,9.671736969286101,11.055686802274769,2.5304685537872516,1.1945361826305454,5.318186454013229,2.543600809626089
334,1456704056174625,3.852266812536219,6.552361515335007,9.658350934055173,11.05992488520609,2.5400147647890843,1.1787469302636753,5.271761974190647,2.584991827164383
335,1456704056174625,3.832106104071798,6.547321018128274,9.63706150270617,11.056668141146583,2.5604947318356466,1.1633330804806592,5.21001091407981,2.63042336704947
336,1456704056181620,3.8154333249709658,6.514521768969157,9.609568639184605,11.045684068011454,2.5914800573092744,1.1486763765445964,5.134162629694012,2.6799333499256197
337,1456704056181620,3.8029077285811153,6.455190391551446,9.577673858734569,11.026672903985766,2.6322144462610195,1.1351099171255996,5.045714667138834,2.7333836522246155
338,1456704056198620,3.7951014790046953,6.371138826833362,9.543226427613336,10.99933656715243,2.68162351217854,1.1229087166662168,4.946357968834997,2.7904552457096106
339,1456704056198620,3.7924846123384475,6.264707083977427,9.508062838940582,10.963459152024544,2.7383364653401068,1.112283608860602,4.8379024190525595,2.850651390416849
340,1456704056199621,3.7954140181808564,6.1386909491963815,9.473944616006602,10.918995660360022,2.800719154544963,1.1033786611781948,4.7222068255284855,2.9133090619486937
341,1456704056199621,3.804126994552568,5.996258732413169,9.442498894748423,10.866165128149387,2.86691745799332,1.096272039913088,4.601116483272275,2.977618427529854
342,1456704056211628,3.8187392710484445,5.840860570618882,9.415165474775012,10.805542953352585,2.9349095205213915,1.0909800098596716,4.476410297316088,3.0426496234898455
343,1456704056211628,3.8392467217264272,5.676133271742876,9.393153622577627,10.738145931194628,3.002564777906749,1.0874635185028598,4.3497582312719265,3.107385382025354
344,1456704056220919,3.8655294221353995,5.505803542547051,9.377411458038955,10.665503031137794,3.06770714732898,1.0856366509048756,4.222688909026769,3.170757332017675
345,1456704056220919,3.8973563819213646,5.333592412645759,9.368610014121552,10.589705389738441,3.128179387726054,1.0853761637041617,4.0965667263663805,3.2316832557250774
346,1456704056235437,3.9343894954279155,5.1631233674959045,9.367143202695935,10.513430071500194,3.1819056819003153,1.0865313065768036,3.9725777100375677,3.2891024861021116
347,1456704056235437,3.9761861470545266,4.997836177289071,9.373143906181545,10.439933688303878,3.226950070819307,1.0889332050068925,3.85172327951106,3.3420071326931002
348,1456704056241441,4.022201064559564,4.84090800132083,9.386514970236602,10.373013926512323,3.2615693437355024,1.0924032022245995,3.7348208123220674,3.389467739225376
349,1456704056241441,4.071788749445265,4.695183278166752,9.406972060222287,10.316939425063358,3.2842600000615856,1.0967597445903536,3.622509538872504,3.430652862497649
350,1456704056257437,4.124207936826127,4.563114083862525,9.434093655315007,10.276351190181026,3.2937995582372346,1.1018236384245135,3.515260087401617,3.464842628435777
351,1456704056257437,4.178629386879688,4.446712815632451,9.467372410747734,10.256141239808292,3.2892826052954813,1.1074217578889007,3.4133863050792983,3.4914366095577485
352,1456704056263436,4.234148145087479,4.347519072354914,9.506262163820931,10.261315548519754,3.2701516790714815,1.1133894707723078,3.3170587974482273,3.5099565362255154
353,1456704056263436,4.289801156758041,4.2665823735004444,9.550216355841227,10.296848329485547,3.236222653623661,1.119572139342111,3.2263204709435547,3.520044487825769
354,1456704056271437,4.344590658349383,4.204461842748154,9.598716279388789,10.367533792762794,3.187703963818857,1.125826059017938,3.1411047382799198,3.521457365611879
355,1456704056271437,4.397513125603144,4.161243202342031,9.651289984882132,10.47784036264064,3.1252087280421255,1.132019135267153,3.0612569365214197,3.514058661435469
356,1456704056280437,4.447592876226547,4.136572481935864,9.707523587037436,10.631771259083056,3.049758530447218,1.1380314916395513,2.9865591917573946,3.497808720975654
357,1456704056280437,4.493918891825927,4.129704881468663,9.767066258089207,10.832734799907893,2.9627774432895104,1.1437560991365092,2.916758592229099,3.4727546653731607
358,1456704056295473,4.535683229515915,4.139566354970558,9.829629682391863,11.083428196364508,2.866075105273843,1.1490994654106503,2.8515981093244833,3.4390208127319033
359,1456704056295473,4.572219593803543,4.164824770438409,9.894983004245658,11.385739666852464,2.7618184246086512,1.1539824198074942,2.790849304925902,3.3968000712364783
360,1456704056302471,4.60304108445659,4.203967032516665,9.962944967213925,11.740674231497005,2.6524924177535,1.158341042080665,2.7343455791305336,3.3463466825328143
361,1456704056302471,4.627876551191255,4.255378434977553,10.033375353150191,12.148307704857032,2.540851341256671,1.1621277889139499,2.682014497221797,3.2879708469964446
362,1456704056318244,4.646705080939549,4.317420715487606,10.106167917930515,12.607771484957757,2.4298614751589445,1.1653128752376467,2.6339075042176576,3.2220357894348295
363,1456704056318244,4.659787740402755,4.3885055563974635,10.181246976021097,13.117268711170462,2.322636923003976,1.167885953505232,2.59022518792402,3.1489574840749253
364,1456704056324244,4.667694869596624,4.467160356265642,10.258569380755103,13.674120691312936,2.2223698847012234,1.16985807211831,2.551336371423977,3.069206710185104
365,1456704056324244,4.6713263119086665,4.552083114326364,10.338132571455077,14.274840886138625,2.1322571111637476,1.1712637882571866,2.517789689258753,2.9833127160336543
366,1456704056332253,4.671921440676963,4.6421836780838985,10.419987908452528,14.915231885731126,2.055424591289561,1.1721632116247118,2.4903167288269827,2.8918677372741657
367,1456704056332253,4.67105604569539,4.736609630421201,10.504257312297216,15.590498858626088,1.99485279472499,1.1726436963796478,2.4698261829028616,2.7955318226716632
368,1456704056341253,4.670624047646653,4.834756392229064,10.591150346311048,16.295371147612574,1.953304819471003,1.1728208651708156,2.457388813204623,2.695037564515599
369,1456704056341253,4.672803245270972,4.93626215042901,10.680977898162062,17.02422222357493,1.9332595089072306,1.1728386317748247,2.4542134113284177,2.5911942803032666
370,1456704056355255,4.680005467209816,5.040988840421591,10.774157518221896,17.77117774214143,1.9368511081551292,1.1728679086965539,2.46161425599342,2.4848911387281594
371,1456704056355255,4.694812402953385,5.148990859744972,10.871205124816788,18.530203105599927,1.965816488517926,1.1731037681888135,2.480970693584683,2.37709893305875
372,1456704056362257,4.719899080118637,5.260473666826853,10.972709182445866,19.295166137458583,2.02145051579089,1.1737609719868074,2.513679543985512,2.2688706460794825
373,1456704056362257,4.757947597516408,5.375744894773525,11.079286582049377,20.059876010331816,2.104569845084191,1.1750679688531833,2.561101330014957,2.161341304444749
374,1456704056378396,4.811554293115845,5.495160966759793,11.191523025576425,20.818104319417596,2.215485290284892,1.1772596252719811,2.624501882825394,2.05572764276728
375,1456704056378396,4.883133824231767,5.61907229451699,11.309903222138898,21.563596592861813,2.353982905828047,1.1805690573963679,2.704991439207144,1.9533278219043255
376,1456704056384366,4.974823690765551,5.747769796647899,11.434736998450177,22.29008214672728,2.519314004231186,1.1852189746455344,2.803463719161321,1.8555210816108565
377,1456704056384366,5.088392838920875,5.881434683331372,11.566086813032275,22.99128773571892,2.7101944617072657,1.191412953803643,2.920537630251907,1.763766962881063
378,1456704056401398,5.225158196411837,6.0200925953127244,11.7037008748947,23.660957563158803,2.9248137445644398,1.1993270349232523,3.0565042124136954,1.6796036779250605
379,1456704056401398,5.385912973576005,6.1635727951575605,11.846954938539128,24.292880567246485,3.160854062092124,1.2091019558686538,3.2112812633436074,1.6046452482077123
380,1456704056403364,5.570870085477034,6.311473405508251,11.994805451039133,24.880925986793695,3.4155199197387995,1.2208362482498698,3.384377881732384,1.5405770735521713
381,1456704056403364,5.779623266721099,6.463134382937285,12.145756993587986,25.41908921796379,3.6855781112819175,1.2345803420547636,3.5748709894811097,1.489149634817719
382,1456704056415398,6.011127660320528,6.61762047560117,12.297847330165418,25.901550813829253,3.9674078327520665,1.250331770773287,3.781395651853681,1.452170087997731
383,1456704056415398,6.263700998903552,6.773716476320751,12.448653324289081,26.322751515845656,4.257060168243113,1.2680315160832998,4.00215056820988,1.431491534302777
384,1456704056422132,6.535045886165324,6.929936637547913,12.595320342796525,26.677485257999994,4.550325854371938,1.2875614845084378,4.234919425112601,1.4289996979907984
385,1456704056422132,6.82229299445325,7.084549314031482,12.73461674949758,26.961010404698623,4.842810158820361,1.3087430949841756,4.477107989955063,1.4465966195329834
386,1456704056452423,7.122064161029918,7.235616805305135,12.86301401773931,27.169177695788584,5.130013874150614,1.3313370075997806,4.7257960213493675,1.4861808206109006
387,1456704056452423,7.43055337569022,7.381049020245383,12.976791819440185,27.298571830405834,5.407419526553091,1.3550441304647118,4.977802355858158,1.5496232806328212
388,1456704056454417,7.74362253368604,7.518668169374056,13.072165781181662,27.346661909099428,5.670581678966338,1.3795081238482638,5.2297608662797765,1.6387385439151996
389,1456704056454417,8.056907778793628,7.646280416687789,13.145433266695612,27.31195359098247,5.915219775925877,1.404319610335839,5.478204327815971,1.7552503672626998
390,1456704056460649,8.36593160062121,7.761749410167329,13.193130000882658,27.194133369984993,6.137311614569783,1.4290222446759862,5.719652614625461,1.9007515068552872
391,1456704056460649,8.666215753452855,7.863066175525482,13.212188405186891,26.994194184465982,6.333185295935536,1.453120790825687,5.95070122993787,2.076657537585332
392,1456704056462417,8.953390496759516,7.9484105508456935,13.200087801136892,26.71453229219527,6.499607296521663,1.476091381027435,6.168106168319944,2.2841549552088263
393,1456704056462417,9.223296517433635,8.016201246219008,13.154987254259334,26.3590070720957,6.633864131164283,1.4973940849426524,6.368861595374223,2.5241441084943284
394,1456704056475417,9.4720769858441,8.065133911980505,13.075833479384846,25.932957003279174,6.7338350893949706,1.5164877409317985,6.550267524957898,2.797177690855145
395,1456704056475417,9.696258153109493,8.094208294373944,12.962438635610651,25.443167020236583,6.798053681272318,1.5328467433350406,6.709985248360264,3.1033957172945343
396,1456704056482417,9.892817412549975,8.102746438514481,12.815525535492966,24.897786038305625,6.825755555759485,1.5459792233781557,6.846078886007735,3.442458307864056
397,1456704056482417,10.059237910088113,8.090404344290434,12.636739696938651,24.306198027590863,6.81691066472045,1.555445867987484,6.957042491984587,3.8134782172286883
398,1456704056497420,10.193548900511834,8.057179582663867,12.428627973828172,23.678853327398084,6.772237428744814,1.5608785136888064,7.041813488801265,4.214955738477782
399,1456704056497420,10.294351167379801,8.003416873556755,12.19458304195114,23.027068170797094,6.693196937607595,1.5619976232927155,7.099774117466682,4.644719263111507
400,1456704056504432,10.360826777399465,7.929812553520397,11.938753658360712,22.36280084357068,6.581966123283423,1.5586277591413757,7.13074262390609,5.099875450226337
401,1456704056504432,10.392732207629223,7.837417695695814,11.665923156809408,21.69841333018008,6.441390256447244,1.5507101558783174,7.134955403874872,5.5767736278673885
402,1456704056520939,10.390373792330326,7.727638738138031,11.381362033409093,21.046427124826618,6.274916448626966,1.5383114795404698,7.1130409418331295,6.070989440808136
403,1456704056520939,10.354565110256493,7.602233772988758,11.090663097512818,20.419280431788895,6.086510649850587,1.5216279476001096,7.065986431730743,6.577332565532816
404,1456704056526945,10.286567808429353,7.463302017245843,10.799568764376723,19.82909154288571,5.880561021786654,1.5009842749948772,6.995098404318274,7.089882544830581
405,1456704056526945,10.1880198629453,7.31326361061874,10.5137998492486,19.287430800485282,5.661770874328578,1.476827338778273,6.901959397893224,7.602055710549932
406,1456704056533449,10.060857083243105,7.154827199835596,10.238894097202195,18.80510206044648,5.43504466099155,1.4497148262820896,6.788383608788808,8.106704904740846
407,1456704056533449,9.907234095568151,6.990943992405143,9.980060843609047,18.3919340023166,5.205370661811051,1.4202993518992861,6.656375215446051,8.596252184180369
408,1456704056543448,9.729450516313335,6.824748717483895,9.742055784005652,18.056581593936645,4.977703840176927,1.3893086809709587,6.508093137494679,9.062852805726392
409,1456704056543448,9.529887087379858,6.659489437213311,9.529077198169805,17.806338295173184,4.756852045780579,1.3575228803398174,6.345825079669101,9.498586630739933
410,1456704056558447,9.310955254181545,6.498448943396244,9.344682750361605,17.64696033820925,4.547368393621524,1.325749388121854,6.171972047242228,9.895670945136532
411,1456704056558447,9.075062019058231,6.344860735476414,9.191724796927732,17.582505878255294,4.353452290307639,1.2947970773070308,5.989042576445368,10.24668694209038
412,1456704056564453,8.824590182678136,6.201822679110666,9.072302109115482,17.61519384335386,4.178861106640677,1.2654503786541764,5.799654161060219,10.544810909777878
413,1456704056564453,8.561892584588422,6.072211526426757,8.987726595654713,17.745289234781943,4.026833855256875,1.2384444938588095,5.606538222745442,10.784040233249042
414,1456704056580450,8.289297632552078,5.958601507766638,8.938504439146724,17.971022569904946,3.9000275179504373,1.2144426941330217,5.412544692841097,10.959403311165728
415,1456704056580450,8.009122120367767,5.863190076644775,8.924331887180019,18.288550954987453,3.800466111676314,1.1940166121593145,5.2206425426437795,11.06714159575594
416,1456704056582450,7.723686278632735,5.787733490195434,8.944106767265131,18.69196763946542,3.7295024121762115,1.1776302519264918,5.033912933006204,11.104852072951147
417,1456704056582450,7.4353256952044475,5.733494292122232,8.99595734369049,19.17336630567736,3.6877924873973473,1.165628183298134,4.8555320886341375,11.07158054275225
418,1456704056595464,7.146395521383815,5.701202161958214,9.077290017430933,19.722965331374784,3.6752836210809527,1.1582281172634301,4.68874196470922,10.967859958871541
419,1456704056595464,6.859264082038161,5.691029175469825,9.184856608826816,20.329295244866397,3.6912165903037075,1.155517827044174,4.536808273521546,10.795692595338256
420,1456704056602462,6.576295028734037,5.702580274538714,9.314840952632455,20.979449585184582,3.734143435142759,1.1574562174301122,4.4029668980391605,10.558478761492935
421,1456704056602462,6.299818907458676,5.734899535015835,9.462963557512374,21.659395680062076,3.8019617156746928,1.1638782425513035,4.290360674072247,10.26089801700269
422,1456704056617976,6.032096279165823,5.786492499816573,9.624602116388637,22.354337802837932,3.891965780410654,1.174503303126858,4.201969083095374,9.90875153252996
423,1456704056617976,5.775275435745478,5.8553643373228885,9.794924582953957,23.049121287736977,4.000914888993709,1.1889467072262963,4.140533843438882,9.508776097299215
424,1456704056623976,5.5313482619094385,5.939072954591344,9.969030365067345,23.728663007069425,4.125117284480016,1.2067337560016271,4.10848367823395,9.068440760066705
425,1456704056623976,5.302107803955185,6.0347956477955425,10.142094245497814,24.378391440527047,4.260528561564504,1.2273160014189917,4.107861494593886,8.595736182610812
426,1456704056640488,5.089110764687366,6.139407611709962,10.30950751499897,24.984678556517487,4.40286194039167,1.2500891989574503,4.140256884697809,8.0989651053311
427,1456704056640488,4.893647701351051,6.249570621750467,10.467011705289218,25.535245912419217,4.547707372077529,1.2744124511570167,4.2067464738082325,7.586540583901044
428,1456704056642484,4.716723164337768,6.361830143501916,10.610821427246664,26.019528414242327,4.690655826344791,1.2996280072023803,4.307844296529388,7.0667971456603285
429,1456704056642484,4.559047223824111,6.4727187138220525,10.737732960536329,26.428980418547187,4.827424653566713,1.325081134976617,4.443463997790183,6.547818660418047
430,1456704056654484,4.421038809894597,6.578862653529825,10.845214204568418,26.75731009344857,4.953979589681493,1.3501394352893976,4.612894097187895,6.037285464799211
431,1456704056654484,4.3028402437605795,6.677088297696299,10.93147042016772,27.00062988495441,5.066648865837875,1.3742109581643083,4.814786836903105,5.542342232884245
432,1456704056661490,4.204341474729914,6.764523379331252,10.995480199338365,27.15751438759219,5.162225019999727,1.3967604916729728,5.04716044611785,5.069487310242601
433,1456704056661490,4.125212034854737,6.838689285243232,11.036998000187738,27.22896146942557,5.238050272550768,1.4173233906379785,5.307414162760918,4.624483596573427
434,1456704056677525,4.064938655270427,6.897580617278187,11.056522986440113,27.218256799052025,5.292081665994534,1.4355163214649194,5.592355037420438,4.2122904732279585
435,1456704056677525,4.022866702755687,6.939729514606463,11.055237571100276,27.130745583029103,5.322932749948311,1.4510443872970753,5.898235343668562,3.837015822201867
436,1456704056683491,3.9982437885340287,6.964253112333628,11.034921725585301,26.973519402627044,5.329889714113934,1.463704306848114,6.220799454062093,3.5018870096828487
437,1456704056683491,3.9902638718014023,6.970883084099398,10.997850169856488,26.755031261196493,5.312901651178728,1.4733836426726314,6.555339565019666,3.209239808645079
438,1456704056700492,3.9981099375647062,6.959976431946955,10.946679164973837,26.484657456819022,5.272546680203178,1.4800564411244905,6.896760707150766,2.960524480678273
439,1456704056700492,4.020992984826137,6.932506695833204,10.884328533817818,26.17222919006658,5.209977264061438,1.4837759439173872,7.239656634751924,2.756328433264767
440,1456704056702486,4.058184772900135,6.8900348104910725,10.813863637284486,25.82755918638028,5.126848884879621,1.4846651767077426,7.578398781002157,2.596414831117862
441,1456704056702486,4.109041811481228,6.834659234962844,10.738381737796793,25.459989063894493,5.0252365841835855,1.4829062116259208,7.907240090178616,2.479776200252216
442,1456704056723001,4.173018696161983,6.768945885364341,10.660907059321923,25.07798168212038,4.907544035373428,1.4787288023070144,8.22043428841568,2.4047015144467934
443,1456704056723001,4.2496699560748725,6.695839695343185,10.584298180704991,24.688779315201934,4.776409741100016,1.4723989824339678,8.512369406618063,2.368854689469152
444,1456704056729002,4.33864060371724,6.61856095509913,10.511170049914352,24.298143926123785,4.634614500616404,1.4642081360828727,8.777712479221107,2.3693620126669415
445,1456704056729002,4.4396462331440745,6.540490579982784,10.443831418129394,23.910190981060648,4.4849935208097875,1.4544629514703555,9.011560562123156,2.4029058517170054
446,1456704056737544,4.552443899123584,6.465049025059173,10.384237450845252,23.52732318832384,4.330355608686517,1.4434765115515362,9.209591672314101,2.465821900465869
447,1456704056737544,4.676795351852154,6.395573804538326,10.333956873308118,23.15026476042173,4.173410961228969,1.4315605809519456,9.368207903570353,2.5541971296004418
448,1456704056743513,4.812424582605272,6.335200566025074,10.294152980568802,22.778190370720676,4.01670835008844,1.4190190022042606,9.484661795130421,2.663965593687717
449,1456704056743513,4.958972025430485,6.286752394596209,10.26557776124273,22.408936818608485,3.862582097008155,1.4061420635511286,9.557156393507,2.7909994295946015
450,1456704056760545,5.115948096612137,6.252641509122785,10.248578125683567,22.039280470868874,3.713109109509298,1.393201722502534,9.58491011549853,2.9311927389656858
451,1456704056760545,5.282688945465921,6.2347867815764575,10.243112914281555,21.665260025188605,3.5700762424743098,1.380447628632111,9.568180178779212,3.0805364856953603
452,1456704056762509,5.458317225792441,6.234549522585298,10.248778937880553,21.282521550142917,3.434958194742608,1.3681039775553834,9.508242821292676,3.2351830465966627
453,1456704056762509,5.641710353143114,6.252688824842321,10.264843690431452,20.886661037646004,3.308905934587299,1.356367322989025,9.407333243646818,3.3914996456047453
454,1456704056773510,5.831478267566159,6.289336733065807,10.290281920036245,20.47354018863154,3.1927453012617475,1.345405512583608,9.268551361603736,3.5461105538597972
455,1456704056773510,6.025952441874342,6.343992894746346,10.323813415798588,20.039555280156893,3.086985076517734,1.3353578406203153,9.095740695390404,3.6959286380556247
456,1456704056783510,6.223187797860085,6.4155382318300695,10.363940059512798,19.581846024848495,2.991833566640545,1.3263363285088954,8.89334807168076,3.8381775661343362
457,1456704056783510,6.420979022701703,6.502267458209616,10.408980942300328,19.09843876818288,2.9072225756194228,1.3184278174460213,8.666272024838731,3.970406578943945
458,1456704056797546,6.616892207545635,6.601940644583875,10.457105144247576,18.588324384961975,2.832837505466375,1.311696399395942,8.419707670995185,4.090499974483279
459,1456704056797546,6.808311755625681,6.711854059454719,10.506362935597311,18.051475977147557,2.7681521863324186,1.3061857309952334,8.15899498555022,4.19668325294801
460,1456704056803516,6.992501373245738,6.8289299189892665,10.554717437939678,17.48881554237945,2.7124670032457945,1.3019209741578532,7.889475875621926,4.287527401595115
461,1456704056803516,7.166676921361285,6.949823585311533,10.60007938582734,16.9021417674892,2.664948961237716,1.2989103505009174,7.616363681019991,4.361952281235081
462,1456704056821066,7.328088137149761,7.0710455114843205,10.640347185715273,16.29403205987131,2.6246723856414302,1.29714642461879,7.344627283134282,4.419229599265741
463,1456704056821066,7.474105863410735,7.189094029360154,10.673453400557033,15.667730676769304,2.5906588850891477,1.296607199422391,7.078891002314303,4.4589854358085255
464,1456704056823060,7.6023115250932305,7.300593830518471,10.697417642736799,15.027032098844783,2.5619151021616755,1.2972569805116532,6.8233507073395305,4.481201605488463
465,1456704056823060,7.710586041163566,7.4024336203766135,10.7104047406986,14.376165488302842,2.537466832153216,1.2990468400089186,6.581705895034443,4.486214332418258
466,1456704056833934,7.797195789273357,7.491895111315613,10.71078576968848,13.719682847997387,2.516388379411248,1.3019144716980904,6.357107076197306,4.474708053736473
467,1456704056833934,7.860873260698795,7.566764689221649,10.697198231757984,13.062351179185846,2.4978264519927658,1.305783326498429,6.152117806385852,4.447701931526323
468,1456704056848934,7.900889530044304,7.6254192773547524,10.668601005095727,12.409048292550706,2.481018322604658,1.3105611025198687,5.968691003269848,4.406526967887721
469,1456704056848934,7.917114884577348,7.66687957825922,10.624320095533461,11.764662770799841,2.4653043178027114,1.3161378321155661,5.8081594590203345,4.352792444613281
470,1456704056858015,7.91006346854954,7.690827058992398,10.564082137181964,11.133999580742136,2.45013492842134,1.3223839117923037,5.671240476318188,4.288341590873604
471,1456704056858015,7.880918127678576,7.6975852162117535,10.488033064383767,10.521692720966064,2.4350729637344317,1.3291484870095251,5.558054381642412,4.215197675283341
472,1456704056863928,7.83153282708368,7.688069709609079,10.396739448588548,9.932125018240693,2.4197911747378655,1.336258647174245,5.468156424833502,4.135502858996682
473,1456704056863928,7.76441141018387,7.663714668222791,10.291170742811845,9.369353760575345,2.404065675142622,1.3435198669727821,5.400581272463778,4.051452927654187
474,1456704056880914,7.682662232972121,7.626383295834587,10.172662746062633,8.837040401247558,2.387765436580477,1.3507180047723994,5.353898944629851,3.9652313284406215
475,1456704056880914,7.589928219918938,7.57827026546714,10.042865068893787,8.338383477948907,2.3708382869795983,1.3576229479222266,5.326280729679292,3.878945764637449
476,1456704056882734,7.490292027931919,7.52180219168243,9.90367667668426,7.876055567320836,2.353294199619979,1.3639937502272095,5.315573376791402,3.794570051906684
477,1456704056882734,7.388157379155355,7.459541284329371,9.757173235152948,7.4521465365236,2.3351870553948095,1.369584926607504,5.319379625892726,3.713893228986587
478,1456704056895010,7.288110302673107,7.39409614570425,9.605528835203119,7.06811599974524,2.3165963059734205,1.374153494799251,5.3351429050804,3.6384772354859147
479,1456704056895010,7.194766766274134,7.3280423516122015,9.450933860845003,6.724757862177947,2.297609972626145,1.3774663508054057,5.360233971369489,3.5696238653984804
480,1456704056903959,7.112614633526944,7.263853935660818,9.295510988493575,6.422179589221766,2.278310208894246,1.379307581910648,5.392037450278222,3.5083511388857462
481,1456704056903959,7.045857782028024,7.203845545142104,9.14123256256697,6.159798637198936,2.258762333426554,1.3794853598782524,5.428036496217624,3.455378771501428
482,1456704056918248,6.998269171451054,7.150124339251804,8.989844032489826,5.936358115319832,2.239007871959532,1.377838147012684,5.4658939420268515,3.4111222138303154
483,1456704056918248,6.973058289002124,7.104550756769177,8.842798640053331,5.749962836532078,2.2190617221088997,1.374240078003262,5.503528208402819,3.375694834083121
484,1456704056924250,6.972757150509869,7.068707677403593,8.70120769896643,5.598135447786393,2.198913073712915,1.3686055012813398,5.539181917775214,3.348918079412993
485,1456704056924250,6.999128204793683,7.043877771499683,8.565809131813952,5.477890743824785,2.178529282755303,1.360892723451442,5.571480731832072,3.3303396619728876
486,1456704056941094,7.053097027536903,7.031028889768296,8.436955281056457,5.385825058057576,2.1578616581115124,1.3511069733704792,5.59947955017798,3.319259835528601
487,1456704056941094,7.1347121150829516,7.030807304812298,8.314619969987262,5.318216976326892,2.1368521702032184,1.3393025238271659,5.62269300548408,3.3147656349444246
488,1456704056942758,7.24313303721981,7.0435384397322665,8.198424362325143,5.2711353309025455,2.1154403689659027,1.3255838566264908,5.641107398477306,3.3157725577179864
489,1456704056942758,7.376646866409242,7.069234336517667,8.087680809843903,5.2405501902319465,2.0935700958370385,1.3101057684781003,5.655172108791374,3.321072570046018
490,1456704056953761,7.532711585326226,7.107606741245027,7.98145294748049,5.222442326079897,2.071195726129356,1.2930723511992732,5.665770058351544,3.329386555927908
491,1456704056953761,7.708024299952044,7.1580846273112915,7.87862866083014,5.2129066604484295,2.0482877324736584,1.2747347744001705,5.6741684209304974,3.3394185694904537
492,1456704056963760,7.898611565086667,7.219835234003819,7.778000736938778,5.208245653673794,2.024837448772188,1.2553877344628455,5.681951877153249,3.3499087929137272
493,1456704056963760,8.099938881842737,7.291788012693332,7.678348846214646,5.205049432109549,2.0008610250943435,1.2353643780121413,5.690941461373282,3.3596821626726032
494,1456704056977761,8.307036260956435,7.372661138520209,7.57851658346121,5.200260571688495,1.9764025831349805,1.2150295507338904,5.703103033439932,3.3676901539856186
495,1456704056977761,8.514636459240762,7.460990461024902,7.4774785333217615,5.191222815178474,1.9515365029267842,1.1947713672583564,5.720450632294634,3.3730439814749293
496,1456704056983761,8.717322042674768,7.555160727443448,7.374394018102901,5.1757143371274585,1.9263687114148893,1.174991267694964,5.7449506988532235,3.3750383076014168
497,1456704056983761,8.909676882682886,7.65343839458459,7.268645647901726,5.1519669715508245,1.901036876788127,1.156092858614206,5.778432840538767,3.3731653424458496
498,1456704057007761,9.086437166197138,7.754004653999378,7.159861849643495,5.118672878106674,1.875709504415742,1.1384699177622044,5.82251159359776,3.3671198709778913
499,1456704057007761,9.242636654729912,7.854987159793455,7.0479234416407275,5.0749797645468995,1.8505840034027623,1.1224939896283148,5.878522024479002,3.3567962336083097
500,1456704057009761,9.37374088723882,7.954489658308547,6.932955383732381,5.020475448052124,1.8258837843901279,1.1085020562553898,5.947470403542485,3.3422786577702164
501,1456704057009761,9.475765390488485,8.050619709765307,6.815306206101766,4.955162479587044,1.8018543540888692,1.0967848694378155,6.02999978830169,3.3238265704397447
502,1456704057013762,9.545373965037802,8.14151524175679,6.69551895241215,4.8794238510258205,1.778758288056792,1.0875766446732298,6.126369328863043,3.3018565141353218
503,1456704057013762,9.579954781326451,8.225370685532413,6.574298158915629,4.793981346407908,1.7568690344291908,1.0810468616498172,6.236445723153514,3.276922013909483
504,1456704057023772,9.57767373258706,8.300463247811477,6.452477211893253,4.699848592602995,1.7364637526224356,1.077294839030455,6.359705701374479,3.249692329937499
505,1456704057023772,9.537505509357597,8.365179625103263,6.330989636827686,4.598281004644458,1.717815668064274,1.0763475677429073,6.495249423952023,3.220930673957019
506,1456704057037778,9.459243198949054,8.418043173575043,6.210846738752895,4.490724534656773,1.701186545620869,1.0781610441308795,6.641825528443329,3.1914722497673353
507,1456704057037778,9.34348746391834,8.457741297726733,6.093122673819494,4.3787646387886,1.6868198051240881,1.0826250790316225,6.797868768416762,3.1622023282598666
508,1456704057043779,9.191616847850325,8.4831527065233,5.978946692790427,4.264076430976518,1.6749346045229216,1.0895712899303582,6.96155079978551,3.134034440544774
509,1456704057043779,9.005741286090698,8.493374208702095,5.869501188397096,4.148376672515178,1.6657210159608018,1.0987837329522054,7.1308439209977195,3.1078887689717174
510,1456704057060779,8.78864107157799,8.487746829163338,5.766023394012884,4.033378057733311,1.6593363023879129,1.1100114436248603,7.303596579089657,3.0846710112443683
511,1456704057060779,8.543693242709162,8.465880995911618,5.669808142690258,3.9207462570857436,1.6559022808296122,1.1229820746646602,7.477618301698572,3.0652522274144145
512,1456704057062780,8.274786997494058,8.42768005945987,5.58220903688496,3.812060369251995,1.655503769166616,1.1374158403119325,7.650770527479319,3.0504501807426463
513,1456704057062780,7.986229779838081,8.373360534606267,5.504635611632169,3.7087776715407377,1.6581880720827238,1.1530390399852022,7.821058664760388,3.041012380208584
514,1456704057074815,7.68264619795428,8.303466717172512,5.438544394756693,3.6122036581420076,1.6639653424529433,1.1695964818741384,7.986719676976289,3.03760061773728
515,1456704057074815,7.36887254262014,8.218877160226572,5.385422198034574,3.523468199720367,1.6728095080945233,1.1868621475357095,8.14629877159517,3.040776490913436
516,1456704057083781,7.049849907415352,8.120800905115999,5.346760801558253,3.443508249180013,1.6846593722222243,1.2046474648808203,8.298708724324966,3.050987277743415
517,1456704057083781,6.730518522436958,8.010762134596629,5.324023430527122,3.37305701414109,1.6994195602329571,1.2228066519893448,8.443266224655593,3.068551555274048
518,1456704057098027,6.415715021356185,7.890572845876071,5.318604515206304,3.312639155188699,1.7169611920308214,1.2412388035468984,8.57970115483744,3.0936441855000965
519,1456704057098027,6.110073505307813,7.7622940118835615,5.331784585300532,3.262571506865984,1.737122386000344,1.2598866875049621,8.70813662204038,3.1262808531824158
520,1456704057103983,5.81793113347483,7.628186263556191,5.364681770443538,3.222969017400789,1.7597088217294439,1.278732520317577,8.829039998791407,3.166303154346252
521,1456704057103983,5.543239777105642,7.490651367647137,5.41820076431062,3.193755836239056,1.7844945998066242,1.2977912314773483,8.943148283757692,3.213365929873708
522,1456704057121238,5.289486393891173,7.352166031346647,5.492979826730831,3.1746814774832224,1.811223601817932,1.3171018845313913,9.051374111676605,3.266928773596505
523,1456704057121238,5.059625307543596,7.215210103423785,5.589336761197677,3.1653416535621437,1.8396114901808083,1.3367179794444415,9.154700746917698,3.326253419332796
524,1456704057123239,4.8560252261273975,7.082191847618382,5.707215774777484,3.1652028114234816,1.8693483750482174,1.3566973322299907,9.254075023435295,3.390408253705411
525,1456704057123239,4.680432999454213,6.955373276182999,5.846138298094086,3.173628788344883,1.9001020221140725,1.3770921583391518,9.350306738381965,3.45828067586149
526,1456704057134327,4.533955261508298,6.836798574862588,6.005161646254785,3.189907556014647,1.9315213460999319,1.3979399201977782,9.443981872820261,3.528597475074412
527,1456704057134327,4.417058354642064,6.728228693190001,6.18284952703811,3.2132760144151087,1.9632399169394559,1.4192554379412263,9.535395421928,3.5999528525901994
528,1456704057150191,4.3295861661205235,6.631085239169287,6.377257978088748,3.242941349970216,1.9948793327380994,1.4410246767739892,9.624507692685667,3.6708432116073455
529,1456704057150191,4.270794651687741,6.5464066616048,6.585939616854295,3.2780983375887818,2.0260525265182294,1.4632005004632564,9.710925878790595,3.7397073875664035
530,1456704057158192,4.239401043592494,6.474819156843028,6.805968249824352,3.3179427056070447,2.0563672527767407,1.485700531280962,9.793910838801356,3.8049706175818767
531,1456704057158192,4.233645310081182,6.4165238200825465,7.033984949151367,3.3616810682413414,2.0854300357774944,1.5084070993673393,9.872407390016981,3.865090326722977
532,1456704057165192,4.251361372031779,6.371300383879602,7.26626569365694,3.408538057021487,2.11285072939775,1.5311691179542544,9.945094913542256,3.9186017740352788
533,1456704057165192,4.290055602523864,6.3385266453065405,7.498809519103818,3.4577613041662154,2.138247624437798,1.5538056140182315,10.010453616724517,3.964161717054237
534,1456704057179193,4.346990004810108,6.317211665874185,7.727444668879748,3.5086248467188987,2.1612528728488454,1.576110591432879,10.066840892260265,4.000588494609378
535,1456704057179193,4.419267285646791,6.3060402392762045,7.947948437676558,3.560431274362972,2.181517941893353,1.597858882307892,10.112572351711565,4.026897267696771
536,1456704057187193,4.503915070292265,6.303425943435389,8.156174465603197,3.612512608489872,2.1987188515830627,1.618812612691494,10.146003103458916,4.0423294918135
537,1456704057187193,4.597966823780596,6.3075701811508775,8.34817960721757,3.66422968452008,2.212561078400228,1.6387278603625794,10.16560598285545,4.046375900270342
538,1456704057194193,4.698537474779221,6.316524852168424,8.520341796817275,3.7149699098870075,2.222784216456564,1.6573610574363773,10.17004430509857,4.0387923349895605
539,1456704057194193,4.802892059279935,6.328256611922391,8.669461121445885,3.7641437176896564,2.2291666860977237,1.674474764657288,10.15823737949417,4.0196077459086865
540,1456704057203194,4.908505906980863,6.340710950946616,8.792838533439095,3.8111806322952932,2.231530856741349,1.6898426500892398,10.129417593270356,3.9891237292882185
541,1456704057203194,5.013115144046858,6.351874411394758,8.888329467714053,3.85552625203548,2.229748866297655,1.7032537580240965,10.083178219094679,3.9479052269190467
542,1456704057217709,5.114756572829732,6.35983303130548,8.954372244676671,3.8966413646555087,2.2237491964277574,1.7145163013010576,10.019511128818381,3.8967624624331907
543,1456704057217709,5.211796133546831,6.362824704500125,8.989993239788209,3.9340038785237166,2.213523759103217,1.7234611831919908,9.938833429566241,3.8367246901065037
544,1456704057224710,5.3029451946137005,6.359282961646736,8.994792296684285,3.9671135387133987,2.19913496432452,1.729945327702307,9.842001930021407,3.7690067707601247
545,1456704057224710,5.387264174473062,6.347870142574735,8.968912616312414,3.995498737724039,2.1807220388568966,1.733854775000269,9.730314425839902,3.6949700136072354
546,1456704057239231,5.464153653185234,6.327499175534014,8.912999437782185,4.018724263623582,2.1585057236361678,1.735107410893927,9.605496851067873,3.6160791303491955
547,1456704057239231,5.533333969603437,6.297344812063332,8.828151570204822,4.036398688490212,2.132790382705069,1.733655127580535,9.469675059114167,3.533857380335436
548,1456704057247358,5.59481487190181,6.256846423090671,8.715869510682367,4.048180397158074,2.1039626365036743,1.729485173205234,9.32532957003057,3.449841929760103
549,1456704057247358,5.6488568122470175,6.205704850325097,8.578003429347142,4.053781911575019,2.0724860096463633,1.7226204839688242,9.175231838451085,3.3655411954105654
550,1456704057254425,5.695925127410849,6.14387549451812,8.416703439236151,4.052972875453881,2.0388916514018764,1.7131188944976439,9.02236200571596,3.2823956503263414
551,1456704057254425,5.736638180155619,6.071559233175969,8.234373254769771,4.0455825087172705,2.0037656810136326,1.701071226171204,8.869810331750006,3.2017432755806197
552,1456704057264227,5.771710971733734,5.989192083939209,8.033627017197892,4.031502392586007,1.9677339665644917,1.6865983440534735,8.720666663075344,3.124790527574285
553,1456704057264227,5.801896602376931,5.897433837254961,7.8172483751528175,4.010690142312322,1.9314451819080265,1.6698473936082603,8.57790374479695,3.0525893856950943
554,1456704057278348,5.8279286899786245,5.797155351924224,7.588151219003701,3.9831739872692635,1.8955529017722328,1.6509875716569888,8.444260752779273,2.986020785428547
555,1456704057278348,5.850468113339744,5.689423914206814,7.349342483382876,3.9490577234145867,1.8606974112587769,1.6302058819429388,8.32213325464728,2.925784481470355
556,1456704057285354,5.870057288981804,5.575485816309495,7.103888271306326,3.9085251811613104,1.827487915684462,1.6077033270149532,8.213475251699222,2.8723950801848637
557,1456704057285354,5.887084748063739,5.456745032727203,6.854884474905658,3.8618433702920836,1.7964859220503338,1.5836918886343974,8.119718277888529,2.8261836964061233
558,1456704057300353,5.901762029740929,5.334736896383587,6.605432105486267,3.809363736924076,1.7681905875363089,1.5583924563184248,8.041711744858787,2.7873045284809392
559,1456704057300353,5.914113834217711,5.2110963247089055,6.358616276213474,3.7515213128252243,1.7430266755164485,1.5320336206994796,7.979687810175563,2.7557456092147254
560,1456704057307354,5.923981112217703,5.087521165592379,6.117486711636359,3.68883173591233,1.721335468413531,1.50485103926922,7.933253118916102,2.7313430018100533
561,1456704057307354,5.931035513751616,4.9657319861398665,5.885037066252137,3.62188602867025,1.7033687171124643,1.4770869724700089,7.901408793268562,2.7137977389825827
562,1456704057314236,5.934802671792338,4.847429747781121,5.664180489832128,3.5513427785973626,1.6892855547784171,1.4489895716889483,7.882598771133212,2.70269488742603
563,1456704057314236,5.934691559549768,4.734252492422015,5.457719938181071,3.477917336969581,1.6791522351794639,1.4208115288305998,7.874784919946489,2.6975242608101944
564,1456704057324187,5.930027758992607,4.627731916604689,5.2683132570959685,3.402368028556762,1.672944514202347,1.3928077630360027,7.87554548893358,2.6977024207335942
565,1456704057324187,5.9200893944807405,4.529250891800198,5.098434197260322,3.3254799589405235,1.670552491366661,1.3652319727411526,7.882191617797143,2.7025956113391527
566,1456704057338349,5.9041450184106505,4.440003480219159,4.9503308910654535,3.248047480377418,1.6717877952906988,1.3383321230551115,7.891894757526742,2.7115431500248843
567,1456704057338349,5.8814927011495515,4.360959385544683,4.825983382580418,3.170856511265275,1.67639308509357,1.3123451649646274,7.901816033310943,2.7238805599237295
568,1456704057345150,5.851499206299271,4.29283483115758,4.7270620405597725,3.0946676940673887,1.684053852785269,1.287491387912758,7.90922739623785,2.7389614318398485
569,1456704057345150,5.813637660556442,4.236071649335004,4.65488907830161,3.02020101315099,1.6944123947078358,1.2639688075138367,7.911614866044604,2.7561768041171364
570,1456704057360150,5.767521811115865,4.190826055994408,4.610405622934868,2.9481221982955574,1.7070835740769061,1.241947986153601,7.906756797567103,2.774970961383513
571,1456704057360150,5.712935037713324,4.1569682629035185,4.5941465961182395,2.879031078803171,1.7216716599407271,1.2215677208713733,7.892774228003262,2.794853024259784
572,1456704057367150,5.649852671883828,4.13409371781794,4.60622511979914,2.8134519536469647,1.7377871677325614,1.2029320460338657,7.86815437708935,2.815404306578161
573,1456704057367150,5.578456602757121,4.121546235444775,4.646327408080366,2.75182591918506,1.7550623209162945,1.1861089035209054,7.831751064645483,2.8362818123970435
574,1456704057383342,5.499141556011895,4.118452487730907,4.713718274218331,2.694504945268664,1.77316360872434,1.1711306346441888,7.782767189826841,2.857218241976561
575,1456704057383342,5.412512918408295,4.1237663361557395,4.807256546274921,2.6417474422983047,1.7918000885850756,1.157996232698533,7.720725076877908,2.8780186159314822
576,1456704057385349,5.319376561098227,4.136320492417607,4.925418946805692,2.5937152692707572,1.8107266551727776,1.1466751356427352,7.64543070008077,2.898553510639695
577,1456704057385349,5.220721770662802,4.154882106782596,5.066330445961047,2.550472534117922,1.8297423147482215,1.137112235024638,7.556937522000976,2.9187492252924137
578,1456704057398303,5.117699050217213,4.178208203005773,5.227798754304453,2.511986834947069,1.8486842587180334,1.1292336892599377,7.455514909045876,2.9385758383776985
579,1456704057398303,5.011594933241976,4.205096631926803,5.407350481165502,2.478133529968744,1.8674190216417004,1.1229530354697146,7.341624854760967,2.958034602689657
580,1456704057404312,4.903805826905348,4.234428689420858,5.602266681268659,2.448703193286511,1.8858322111962387,1.1181770209450237,7.215909117057722,2.977146145131791
581,1456704057404312,4.795812397455908,4.265200754139102,5.809616242845804,2.4234117937780537,1.9038182591459147,1.1148105795000187,7.0791870929060625,2.9959405250420748
582,1456704057427857,4.689155441542625,4.296543815171558,6.026286823785226,2.401912598529144,1.9212714273464975,1.112760494315991,6.932463127600216,3.0144496192401795
583,1456704057427857,4.5854136917775765,4.327731078295966,6.249014468326872,2.3838086244416536,1.9380790097832994,1.111937503008094,6.776940621371535,3.0327017679114237
584,1456704057429858,4.486183518649311,4.358174864441034,6.474414092892556,2.3686647277345236,1.9541173971064825,1.1122568624339677,6.614039123672115,3.050718248031628
585,1456704057429858,4.393059923853039,4.387414868651129,6.6990133261519835,2.3560189153135034,1.9692514139211794,1.1136376207852756,6.445409498080715,3.0685109791016134
586,1456704057442567,4.307617589787062,4.415100452685315,6.919291763461026,2.345392865454882,1.98333701518886,1.1160009617787876,6.2729415067682535,3.0860808897820435
587,1456704057442567,4.231390266694544,4.440969842384692,7.131726895860085,2.3363018351906493,1.996227012240233,1.119267981483542,6.098758458504832,3.103416519499604
588,1456704057444363,4.165846779961998,4.464828937977993,7.332847104837106,2.328264210178052,2.0077791052938063,1.1233572129058988,5.92519527887255,3.1204926339645267
589,1456704057444363,4.11236258915497,4.486532049468883,7.519291322437151,2.3208110507044886,2.017865276001303,1.1281822113452658,5.754759008475942,3.1372688480227864
590,1456704057458363,4.072186909516602,4.505966298282743,7.687874331051588,2.313496113066385,2.0263815810766452,1.1336495580265935,5.590073228152559,3.153688406496489
591,1456704057458363,4.046406550602915,4.523040768396255,7.835656259155269,2.3059068553527244,2.0332575029406605,1.1396576577413142,5.433809571179536,3.169677308464652
592,1456704057463365,4.035908620706652,4.537680904989871,7.96001450207578,2.297676728544699,2.03846413300445,1.1460966282329053,5.288610444592437,3.18514386816829
593,1456704057463365,4.041344921000682,4.549828243677182,8.05871580586543,2.288498590755525,2.0420204957331065,1.152849401930847,5.157007702082436,3.1999786713565244
594,1456704057479365,4.063100988965138,4.55944526463444,8.129985430877717,2.2781385057467314,2.0439972583111516,1.1597939446819496,5.041342338874849,3.214054846331902
595,1456704057479365,4.101272313748727,4.56652488755249,8.172569299899498,2.2664487109922558,2.0445170453158896,1.1668063270782199,4.943690161913478,3.227228699315453
596,1456704057487365,4.155649484187541,4.571103760173027,8.185784297896134,2.253378343772501,2.043750783555718,1.173764323723125,4.8657977631858795,3.2393409836281544
597,1456704057487365,4.225713203464502,4.573278007553112,8.169551938980181,2.23898064524815,2.041909969172587,1.1805512491217023,4.809032106695232,3.2502192007065767
598,1456704057502568,4.310639295900739,4.573219529896573,8.124411540288202,2.2234157098393257,2.0392353023469525,1.1870597893452717,4.7743458533127665,3.2596812334861736
599,1456704057502568,4.40931303635748,4.571190355742537,8.051510405129392,2.206948219452533,2.035982595567466,1.1931956128775212,4.762259377692656,3.2675403075401075
600,1456704057505366,4.520351414047608,4.567552146506493,7.952569911221973,2.189939876156385,2.032407159375618,1.1988805653996033,4.772859324862954,3.2736109451847537
601,1456704057505366,4.642131469475413,4.56276799210557,7.829827876450448,2.172836462185634,2.028747985430597,1.2040552921715069,4.8058124851630755,3.277715414355263
602,1456704057518155,4.772822770127322,4.5573943925445315,7.685959298522943,2.156149762624534,2.025212992014378,1.2086811734338236,4.8603927828888915,3.2796901582154407
603,1456704057518155,4.910422392865367,4.552062722855381,7.523979367217494,2.1404350578307696,2.0219664318829333,1.2127414927419262,4.935518419529388,3.279391647953167
604,1456704057525166,5.052791257253175,4.547451095588625,7.3471342132967035,2.126265414221335,2.019119338910681,1.2162417860350834,5.029795785986518,3.2767010037102984
605,1456704057525166,5.197691061858724,4.544248858433756,7.15878599562964,2.1142043800452397,2.0167236075575645,1.219209327922581,5.141566609311731,3.271526754788795
606,1456704057540322,5.34282124287558,4.54311670869781,6.962299419108287,2.104778815677634,2.0147699522980482,1.2216916915714477,5.2689548385626965,3.263805343639315
607,1456704057540322,5.485855333176257,4.544645585435886,6.76093638219862,2.098453455192254,2.013189621972629,1.2237542912448498,5.409910055971596,3.253499264905016
608,1456704057546990,5.6244761444970655,4.549317296959005,6.557764273375758,2.095608484254552,2.011859413910106,1.2254768241634715,5.56224488732034,3.2405929101079427
609,1456704057546990,5.756409580040518,4.55746942410934,6.355581880420175,2.096521035323403,2.010609284930577,1.2269486046575955,5.723665084407135,3.2250863069674334
610,1456704057562990,5.8794574548062855,4.569266515630911,6.156865220238011,2.1013511074580826,2.00923166931045,1.2282629286781042,5.891792605514143,3.206987145611127
611,1456704057562990,5.991530060356196,4.584679077189337,5.963733891232679,2.1101320294305865,2.0074914678059153,1.2295107720875957,6.064183781498786,3.186301770134316
612,1456704057564991,6.09067918767799,4.603471476705714,5.777936949982247,2.122765266127942,2.0051356597009073,1.2307742493847138,6.238345925612937,3.1630260069932206
613,1456704057564991,6.175132056454953,4.625199676503803,5.6008561415547025,2.1390192514600335,2.0019017601009876,1.2321203343470102,6.411756100070098,3.1371366790592043
614,1456704057578253,6.243326293026764,4.649219530489134,5.433523737245615,2.1585320607724663,1.9975248782148622,1.2335954040945423,6.581885279459893,3.108584511280657
615,1456704057578253,6.293945821334994,4.674706047008631,5.276652067102612,2.180817966508862,1.9917436828068167,1.2352211912670596,6.746230242871149,3.07728907493153
616,1456704057585254,6.325957159649891,4.700683376078393,5.130671709292855,2.2052780358678623,1.9843059040185336,1.236992643466961,6.902354488905332,3.0431365004778788
617,1456704057585254,6.3386449724291385,4.726064374130211,4.995775026681279,2.2312148245386045,1.9749740518846732,1.2388779832015464,7.047938374731097,3.005980743707937
618,1456704057600254,6.331644855733766,4.7496976687961805,4.871961512017273,2.2578509720982995,1.9635319128476296,1.2408210062893101,7.180837478482114,2.965649036810729
619,1456704057600254,6.304970579229044,4.770419491985218,4.759081614782886,2.284351291478865,1.9497922045419593,1.2427454232629975,7.29914689481942,2.921951809868302
620,1456704057607254,6.259032768856811,4.7871073031470965,4.6568766070527285,2.3098478772019497,1.933605579078905,1.2445608661716938,7.401268002505962,2.874696943281921
621,1456704057607254,6.194646433091718,4.798732258490502,4.565013394194279,2.3334677712937513,1.9148709634094472,1.246170061435324,7.485973467974503,2.823707774120949
622,1456704057623324,6.113025555797155,4.804407718481089,4.483114384526903,2.3543626733354426,1.89354698176351,1.2474766124501266,7.552466002561771,2.768843883622472
623,1456704057623324,6.0157638290155235,4.803431215892306,4.410783036486754,2.3717399743649965,1.8696638986647054,1.2483928390501695,7.600426576183184,2.710023426333307
624,1456704057625358,5.904801430058113,4.795317703178317,4.347625483272232,2.3848940626179793,1.8433351677107654,1.2488471594209751,7.630048212245869,2.647245651190795
625,1456704057625358,5.7823787083903495,4.779822449274852,4.2932682260751625,2.3932365514838336,1.8147673558773665,1.2487905338814305,7.642052097987777,2.580612227298839
626,1456704057638336,5.650978609205195,4.756952594713272,4.247371824919916,2.3963240629962517,1.7842670930130404,1.2482015084841176,7.637683699357104,2.5103459381435833
627,1456704057638336,5.513260273287511,4.72696706574095,4.2096408431064525,2.393882604688451,1.752243905667184,1.2470894375335,7.618687914661341,2.436805262559408
628,1456704057645013,5.371986427181619,4.6903652834142395,4.179830646063211,2.385828252120441,1.7192083116821388,1.2454955771028269,7.587263700417559,2.3604934121702033
629,1456704057645013,5.22994718298072,4.647865840089994,4.157751725707823,2.3722844357381088,1.6857651937375577,1.2434919557558277,7.545999718312551,2.2820606883707004
630,1456704057660044,5.089882996344559,4.60037693621637,4.143272080152139,2.3535963412743164,1.6526030100344815,1.241178222352651,7.497793521077256,2.2022996754409916
631,1456704057660044,4.95440978703598,4.548960726094703,4.136318042042269,2.3303427316968817,1.6204796883079453,1.2386769367305863,7.445757878534027,2.1221336816173184
632,1456704057667004,4.825949313931767,4.4947937668424585,4.1368738873818245,2.3033450805705136,1.5902060831759564,1.2361278878788846,7.393118818033186,2.0425995935143075
633,1456704057667004,4.7066675765375185,4.439125630376931,4.144980463237589,2.27367350207863,1.5626277800421153,1.2336819931718366,7.343110298948692,1.9648266036503197
634,1456704057683010,4.598423420172511,4.38323762981966,4.160732811938465,2.242648631527764,1.5386059176985911,1.231495236601159,7.298869983675294,1.8900121253028772
635,1456704057683010,4.502728970162701,4.32840360081786,4.184276348093886,2.2118382917215857,1.5189975988522788,1.2297229920548296,7.263339633133244,1.819395875052827
636,1456704057685039,4.420723105453053,4.275854593602106,4.215800790231921,2.18304753678025,1.5046363504455824,1.2285149531266308,7.239172725101538,1.7542328106604386
637,1456704057685039,4.353158748256771,4.226748965284965,4.255531015230509,2.1583007022353966,1.4963130061262249,1.2280107673551792,7.228651253417146,1.6957654521881673
638,1456704057698007,4.300404177152528,4.182148774911794,4.303714287796211,2.139814488608006,1.4947573423923555,1.2283363569399595,7.233613351821418,1.6451960909465264
639,1456704057698007,4.262457908065498,4.143002848729882,4.360603713316666,2.129961678198333,1.5006207930376114,1.229600798136636,7.255393360137229,1.6036594976628669
640,1456704057705039,4.2389760129114675,4.1101365656645745,4.42643813789134,2.1312256022919436,1.5144605368783843,1.2318935729131342,7.294776103720506,1.5721969395519773
641,1456704057705039,4.229310119559238,4.084248268470007,4.501419064831853,2.146145902180319,1.5367251678691671,1.2352820574920407,7.3519671588968745,1.5517324730142064
642,1456704057720069,4.232553850846785,4.06591212104886,4.585685431488198,2.1772565132352257,1.567742047892732,1.2398092400069372,7.426580425858011,1.543052452003809
643,1456704057720069,4.247595210154232,4.0555871128208905,4.679287210394531,2.2270171038989814,1.6077063612837605,1.2454917561618188,7.517643597909515,1.5467889916647424
644,1456704057727043,4.273172394345138,4.053631656364592,4.782158797398046,2.297739387429275,1.6566718560164813,1.2523183386178842,7.6236215253228945,1.5634078893780066
645,1456704057727043,4.3079305956231835,4.060322738459762,4.894093176210689,2.3915099077641555,1.7145433036456745,1.26024873398906,7.74245709374189,1.593201306083898
646,1456704057743080,4.350477467970684,4.075877870631574,5.014717998104532,2.510111203688551,1.7810708888650038,1.2692131295657099,7.871628767667548,1.636285298885352
647,1456704057743080,4.399435139206622,4.1004773448730525,5.143475020405884,2.6549436446599404,1.855846996099278,1.279112171350555,8.00822318407206,1.6926020098971133
648,1456704057745039,4.4534870033672735,4.1342839047174,5.27960481082498,2.8269505884348933,1.938306006542543,1.289817685858672,8.14902028852895,1.7619259830494343
649,1456704057745039,4.511417905470536,4.17745716502534,5.422139031688687,3.026549746641058,2.0277275957838397,1.3011741873700133,8.290587895972473,1.8438738006912558
650,1456704057757038,4.572146546601213,4.230160830422218,5.569902562112774,3.2535737246478624,2.123243649314881,1.313001182533889,8.429382473867202,1.9379160928962704
651,1456704057757038,4.634749007922463,4.292561606399933,5.721527036121615,3.5072226339525026,2.2238484764262556,1.325096221188601,8.561853142054055,2.0433909712486376
652,1456704057766038,4.698472387818806,4.364819545957969,5.875476371614185,3.7860314645517437,2.328411737110024,1.3372386002475432,8.684545842564953,2.1595180052590455
653,1456704057766038,4.762737796383291,4.4470705359032925,6.030084006149304,4.087854528226171,2.4356935210836674,1.3491936151647548,8.794204172881871,2.2854119642880137
654,1456704057780040,4.827132475503106,4.539402537983333,6.183601090814142,4.409868769090261,2.544361237618073,1.3607172782333234,8.887862940539106,2.42009575712087
655,1456704057780040,4.891391751623662,4.641827614284188,6.3342547193900725,4.748597208448357,2.6530081970832753,1.371561447927781,8.962930781172078,2.5625123896383486
656,1456704057787112,4.955372823377102,4.754251533286163,6.480315066710938,5.099953326815657,2.760173901769828,1.3814792819460633,9.01725944762826,2.7115362531226364
657,1456704057787112,5.019023616386203,4.876442231384992,6.620169816569472,5.4593066932911025,2.8643661497902135,1.3902308539222197,9.049199061168448,2.865984405745231
658,1456704057803041,5.082350537024148,5.007998061483367,6.75240347530465,5.821569467532765,2.9640851419465757,1.3975887444897988,9.057639721847492,3.024628505851661
659,1456704057803041,5.145388644120828,5.148316842591588,6.875878353364948,6.1813024784934205,3.05784986915223,1.4033434571052776,9.04203987520677,3.186207711511761
660,1456704057805076,5.2081767284646725,5.296567227242331,6.989813454338882,6.532838514622989,3.144227068449649,1.4073085430900854,9.00244102500904,3.3494423803734765
661,1456704057805076,5.270738526618301,5.451664573245916,7.093857237940303,6.870419345011628,3.221862831053075,1.4093253015075506,8.939467412283154,3.5130480254472842
662,1456704057818104,5.3330702779136,5.612253957447677,7.188149834104007,7.188341904633435,3.2895164600053426,1.4092668987289865,8.854308689077156,3.675748867514165
663,1456704057818104,5.39513435028647,5.776702936081692,7.27336953357189,7.481108133788736,3.3460955014237737,1.4070417826120833,8.748683805487795,3.8362905145175916
664,1456704057832100,5.456858666645205,5.943106105291216,7.350757802546378,7.743572427868869,3.3906901959474975,1.4025963361094669,8.624785485829223,3.9934517037591117
665,1456704057832100,5.518141771426359,6.109302610617408,7.422117661044845,7.9710808813320275,3.4226050907079286,1.3959167993740125,8.485206562027841,4.146055475025167
666,1456704057840087,5.578863125984391,6.272906767152732,7.489782331504591,8.1595975006955,3.441385323521613,1.387030565898253,8.33285152199097,4.292980421105555
667,1456704057840087,5.638897452247051,6.431351091740484,7.55655384740491,8.305813729988918,3.4468351494760703,1.3760069830057449,8.170838415045479,4.433172733367019
668,1456704057847085,5.698130931636049,6.58194037066274,7.62561387077897,8.407238442250314,3.439026629553275,1.3629577312532384,8.002397356876184,4.565659671068505
669,1456704057847085,5.756476259653635,6.721914842282565,7.70041087589465,8.462266175754696,3.418297153153575,1.3480367480587092,7.83077196279733,4.689564843742369
670,1456704057863087,5.813883191438918,6.848520096492501,7.784529041508177,8.470222251411219,3.3852356912507298,1.3314395473620309,7.65912906085991,4.804125255602013
671,1456704057863087,5.870341305896477,6.959080932188813,7.8815447726166425,8.431384361507712,3.3406591332232813,1.3134017082119347,7.49048048364407,4.90870942376032
672,1456704057865086,5.925872420903379,7.05107637983226,7.994877051742403,8.346980817897906,3.2855812552487986,1.2941962920602872,7.327619258827258,5.002835157987464
673,1456704057865086,5.980511662197677,7.122213519793078,8.12763801571211,8.219165889874848,3.2211774244163247,1.2741300041940846,7.173071292602006,5.086184908682649
674,1456704057877123,6.034278403941534,7.17049841974273,8.282490228531588,8.050972917118141,3.148748029281757,1.2535379989224609,7.029062446111536,5.158616043466399
675,1456704057877123,6.087140388546885,7.194303039766082,8.461516964451466,7.846246213985589,3.0696830638186126,1.2327773027510631,6.897499705389371,5.2201631732599125
676,1456704057886115,6.138975638146934,7.192426974406435,8.666111289944249,7.6095530207494955,2.9854295312286383,1.2122189009315978,6.779964168734697,5.271030070540097
677,1456704057886115,6.189537136848557,7.164152464367859,8.896888700304288,7.346077097184771,2.8974625423366556,1.192238618511035,6.677712928790788,5.311570046652555
678,1456704057900173,6.2384248277053675,7.109290529625889,9.153626626730928,7.061496331038253,2.8072602624970386,1.1732070134669943,6.591686617801105,5.342255544372056
679,1456704057900173,6.285068460084365,7.028215610216035,9.435232589986246,6.761847789606332,2.7162823405123158,1.1554785704244501,6.522519653780046,5.363639397557764
680,1456704057907303,6.3287235836052735,6.92188590965656,9.739741289926378,6.453384488456643,2.6259512614995817,1.139380558047312,6.470551273443342,5.376311228977126
681,1456704057907303,6.368481855930246,6.791846850499182,10.064339414606938,6.14242852864935,2.537636172806345,1.125202012334975,6.435836846677431,5.38085284840764
682,1456704057923348,6.403295903390998,6.640215727225441,10.40541550363657,5.83522516093516,2.452638925057023,1.1131834157596134,6.418160007107119,5.3777964955380275
683,1456704057923348,6.4320180761874655,6.469646730435191,10.758631301822387,5.537801849497306,2.372182138404825,1.1035077149031578,6.417046595875359,5.36758944736122
684,1456704057925299,6.453451436874451,6.283276815804375,11.119011254459345,5.255835735950985,2.297398987288127,1.0962933054235608,6.4317815704136105,5.350567868741217
685,1456704057925299,6.466410336781573,6.08465398791288,11.481048063577687,4.9945323266589785,2.2293241777481345,1.0915894826525738,6.461429972239824,5.326941817693648
686,1456704057936555,6.469787263615179,5.877650158044661,11.838823655526229,4.758517854073696,2.168885416273502,1.089374633807997,6.504862657975018,5.296792152010631
687,1456704057936555,6.462622413583657,5.666361055138138,12.186145377277585,4.551747488270302,2.1168946691612467,1.0895572031271088,6.560786825763095,5.260079038415558
688,1456704057945555,6.444172432130501,5.454996256044541,12.516696235348467,4.377431216987653,2.074038745962947,1.0919792655572107,6.627780657142935,5.216661132893648
689,1456704057945555,6.413974665683591,5.247763375477196,12.824195990026496,4.237978647317824,2.0408691701069004,1.0964224422602613,6.704330839561137,5.166324232789382
690,1456704057959555,6.371903034258445,5.048751334400561,13.102567925247184,4.134963275734989,2.017791775750441,1.1026158789648268,6.788871381328671,5.108817923598913
691,1456704057959555,6.318211534615971,4.861817845382447,13.34610495063496,4.069106208806524,2.0050567921352727,1.1102460283072964,6.8798219371717835,5.043898174702094
692,1456704057967555,6.253561762500291,4.690485694477713,13.54962860619697,4.040279120285612,2.002750229822635,1.118967961768712,6.975623878783951,4.971373093036363
693,1456704057967555,6.179031875385144,4.537851394058696,13.708635195718822,4.047526254070664,2.0107872174116177,1.1284178710633996,7.074772708513901,4.891148470364258
694,1456704057983558,6.096105941933857,4.406508779971731,13.819424069729033,4.089105123258107,2.0289077009178818,1.1382263429886714,7.175846012844009,4.803269631142077
695,1456704057983558,6.006644272377066,4.2984894010917,13.879203635409562,4.162544998003592,2.0566747373286565,1.1480319476549157,7.277526575656048,4.707956510850141
696,1456704057985594,5.912836776876632,4.2152210715022544,13.886170965367542,4.26472147691644,2.093475544352296,1.1574946676808264,7.378620296251454,4.605629784170605
697,1456704057985594,5.817142410359013,4.15750546400941,13.839561041429741,4.39194467065604,2.138525510560597,1.1663086718265558,7.478068304735718,4.496926884403383
698,1456704057996557,5.722218154147064,4.125514868054168,13.739662030444276,4.540057914285211,2.1908754787778073,1.1742138674126608,7.574952276673081,4.382707539155683
699,1456704057996557,5.630840845543495,4.118807199201979,13.587794187087061,4.704543521480238,2.2494227046392763,1.1810055921613334,7.668491608167929,4.264048912922618
700,1456704058005557,5.545824866572048,4.136357265029833,13.386252505033822,4.8806320856147485,2.31292588789073,1.1865418212336878,7.758031300461486,4.142230726603834
701,1456704058005557,5.469938504562344,4.176601494079008,13.138216645607656,5.0634123856983395,2.3800245650918415,1.1907474218260836,7.843020535707256,4.018710922008166
702,1456704058020115,5.405821555915387,4.237493036635034,12.847634643519365,5.247939859839388,2.449262968201962,1.1936152465880552,7.922983772085443,3.8950926976714615
703,1456704058020115,5.355906163964577,4.316564333153341,12.51908838815261,5.429342401573105,2.5191182334672533,1.1952041320263826,7.997487936895323,3.773084237581879
704,1456704058027115,5.322341988169637,4.410994779824108,12.157648935741229,5.602922691778621,2.5880326388449046,1.1956341024031287,8.066110202655828,3.6544530954538863
705,1456704058027115,5.306926021156728,4.517681886534704,11.768728891477256,5.764256466398416,2.6544493793359467,1.1950792692210164,8.128410719893242,3.540977611230023
706,1456704058042811,5.311037189665573,4.633315158094555,11.357937738779844,5.9092860317014235,2.7168512092538877,1.1937590644924192,8.183913909248975,3.434397709886757
707,1456704058042811,5.335576440041254,4.754452528947217,10.930944223752372,6.034407860767163,2.773801003716481,1.1919285227828658,8.232100905445456,3.3363671303370688
708,1456704058045067,5.380913949720372,4.877599274417839,10.493348147857931,6.136552275053997,2.8239828807522858,1.189868293564771,8.272414625262988,3.248408822634728
709,1456704058045067,5.446845852155723,4.999288920236863,10.050562865616818,6.213252264529881,2.8662420409672507,1.187874930177368,8.304277636454103,3.1718749988016155
710,1456704058057069,5.532563177735396,5.11616505453358,9.607709712146871,6.262697736966779,2.899621091860137,1.1862518322248166,8.327121547670485,3.1079129989531418
711,1456704058057069,5.636635752153933,5.225062454413091,9.16952598664136,6.283771317444186,2.923390550748628,1.1853010838704499,8.3404251591773,3.0574376470158566
712,1456704058065807,5.757013674374929,5.32308575489077,8.74028831461761,6.276062654798707,2.9370715943860333,1.1853163395649295,8.343757222022564,3.0211101917627765
713,1456704058065807,5.891048606715124,5.407683876862151,8.323753120294429,6.2398599508526,2.940449832594986,1.1865768189387789,8.336818439464752,2.999323415095597
714,1456704058079808,6.035536342603898,5.476718279046663,7.923115763745496,6.1761192861345995,2.933579607905958,1.1893423546537263,8.319476704620076,2.9921922014001088
715,1456704058079808,6.1867810733425515,5.528522694334756,7.540989482545238,6.08641346461297,2.9167788082538153,1.1938493052052015,8.29179023431893,2.999548967470749
