,timestamp,x,y,z
0,1456704054358492,0.029016751134648168,-0.0009166529910108571,0.018867322865663554
1,1456704054374493,0.2454452748174571,0.2518259979201168,0.11711041357879674
2,1456704054397494,0.46667135573034435,0.47803502176365475,0.20123769243199635
3,1456704054420024,0.6900129104236858,0.6565012063507124,0.2614736108073227
4,1456704054434513,0.9012516878897802,0.7751072593951962,0.29492650626143646
5,1456704054457509,1.0777443335967727,0.8310154452046655,0.30502420134132807
6,1456704054479510,1.1974715488243246,0.8289565857593246,0.2983650318459943
7,1456704054519058,1.2486114784704312,0.7794203604090284,0.2810755356564407
8,1456704054521056,1.2334027816137108,0.6976181721875245,0.2570886857080963
9,1456704054532524,1.164524117900965,0.6028224808840423,0.2290180524685496
10,1456704054554526,1.057937362738845,0.5168673652180434,0.19995908471282786
11,1456704054578526,0.9278558427925151,0.4606685674326591,0.17403493016159075
12,1456704054592527,0.7863251154123597,0.44893676455790954,0.15527049834642756
13,1456704054636540,0.6453414827099888,0.48508308410158013,0.14619249186938307
14,1456704054644541,0.5176021448318558,0.5589802209881286,0.14739773643290074
15,1456704054656542,0.41414506616540353,0.6490681666535744,0.1578672506085105
16,1456704054674738,0.340636683685851,0.7283031939903555,0.175087107046299
17,1456704054697666,0.29539560490001104,0.7719465484719578,0.19479369413804232
18,1456704054712546,0.2708507995296734,0.7645958864306105,0.2112460598293153
19,1456704054735431,0.25783723757934973,0.7041056153828971,0.2189123926651738
20,1456704054758477,0.25047657272867,0.6012072457527975,0.21512419903155608
21,1456704054772107,0.24902451458430502,0.47548881281350236,0.20188797006054915
22,1456704054795365,0.2590692254796419,0.3497768847117475,0.18526433178248497
23,1456704054818410,0.287309407995977,0.2449096920946597,0.17253787975965754
24,1456704054831619,0.33594059462440834,0.1759112912387166,0.16899588932623988
25,1456704054854621,0.3986681184833112,0.1498462593675386,0.1760679286862044
26,1456704054877623,0.4609987392033328,0.16541396601486394,0.19133012485587828
27,1456704054891623,0.5054365145578501,0.2141580469741419,0.20986431323257818
28,1456704054915128,0.5191150753514783,0.28285697797163384,0.22629307027302567
29,1456704054937635,0.4993172068168663,0.3564543049273203,0.23694591923903557
30,1456704054953637,0.45349820896424303,0.42087811444228757,0.24145336863840158
31,1456704054974638,0.3944143110712759,0.46523261608976507,0.24288154318680763
32,1456704054997639,0.3342849829054891,0.48314310527795595,0.24602009336728686
33,1456704055013912,0.2817000629936225,0.47335360464536974,0.2546613717092094
34,1456704055034651,0.2420392851975825,0.4396370121115148,0.26966532576536034
35,1456704055064653,0.21961471292648857,0.38981965494310117,0.2891838909859064
36,1456704055073653,0.21935377199218464,0.33393132056421476,0.31070479059474865
37,1456704055094654,0.24681853160789302,0.2821121437494189,0.3330211052645983
38,1456704055118378,0.30634531424449285,0.24304623296478825,0.35634653415776707
39,1456704055134384,0.3979391144702546,0.22318680023538742,0.380568807797011
40,1456704055155383,0.5144857216566011,0.22663161538226909,0.40336365806795016
41,1456704055178446,0.6413711819885582,0.25546209561740496,0.4198989047856058
42,1456704055194367,0.7601638848387399,0.3103268058089313,0.4243584894753836
43,1456704055215171,0.8562601806266196,0.39095195108652964,0.41223399942027034
44,1456704055238183,0.9271558105103848,0.4962036237472745,0.3822949934765821
45,1456704055254385,0.9850943698276711,0.623206324870448,0.3377012308720477
46,1456704055274186,1.0493081494391239,0.7650242093711561,0.28593902402815574
47,1456704055298187,1.1302576089314538,0.9073668623204613,0.23740095320377985
48,1456704055314187,1.2159671390118727,1.0268909268842064,0.20302994995409607
49,1456704055334200,1.2713339823077359,1.0948421122205851,0.19192648825552672
50,1456704055358201,1.2533245297799989,1.0871776508822217,0.2093777649317951
51,1456704055374203,1.134095779885787,0.9967739549318118,0.2551050804629936
52,1456704055394203,0.9186868111447678,0.840125903311893,0.3219168034672163
53,1456704055418224,0.6477109075279175,0.6538567661174352,0.39610935244505135
54,1456704055434232,0.38466735237095345,0.48279440870961315,0.4611855004529723
55,1456704055454234,0.19504931223663585,0.36566362296765614,0.5047289308694386
56,1456704055478234,0.12623350988034104,0.3243219191063073,0.5254159736394877
57,1456704055500236,0.19422736828497952,0.3599200203945194,0.535395340585161
58,1456704055514236,0.37953765652819876,0.45652290685388963,0.5547298817468255
59,1456704055537253,0.632353774152911,0.5898374471516984,0.5993202944709218
60,1456704055559255,0.8864480832572349,0.7362450197671355,0.66891787444347
61,1456704055574371,1.079628221358675,0.8773504877357028,0.7433834588428024
62,1456704055597257,1.1753180897627984,0.9988466700137733,0.7910799189032786
63,1456704055619769,1.1768280820640864,1.0872346191807398,0.7854818129042506
64,1456704055635284,1.1270450875797544,1.129492614073691,0.720481442001318
65,1456704055658290,1.0927809442058474,1.117487321708491,0.6156850216947851
66,1456704055680287,1.1400142097950494,1.0538864165621922,0.5091178333495873
67,1456704055695288,1.3086899834701191,0.9543764043909996,0.44163732946802287
68,1456704055718808,1.5947936574890669,0.8437308346946101,0.4410938671793098
69,1456704055740370,1.9462326526065181,0.7478517701896791,0.5132277464120675
70,1456704055762316,2.276445609801369,0.6863013557425117,0.6415256160185854
71,1456704055778371,2.493210248737079,0.6686332458459514,0.7936495370425714
72,1456704055800370,2.532318619774701,0.6947825574464829,0.9310324107607214
73,1456704055816381,2.3824301722610506,0.7576104103869057,1.0197745635549436
74,1456704055838485,2.0909534112565695,0.8457428350372128,1.0412696849823755
75,1456704055860492,1.74870837639284,0.9462574492723541,0.9991219933818749
76,1456704055875336,1.4595731411385322,1.047526100162691,0.9180776813053673
77,1456704055899337,1.3068583616855132,1.141499966030768,0.8335996212912281
78,1456704055920352,1.3282577944835978,1.2235652678161388,0.7760660998641971
79,1456704055935366,1.5067393849316937,1.2895603205486603,0.7573292258972575
80,1456704055958362,1.779283025038809,1.333021853008812,0.7665251566864016
81,1456704055979364,2.0609821020993606,1.3469038497842722,0.7771736931392073
82,1456704055995393,2.277563687118572,1.3304218003774115,0.762105935304803
83,1456704056027222,2.3940337139103915,1.2963873415277969,0.709540416538317
84,1456704056039707,2.4247791883497984,1.2726752768554714,0.6331203822410076
85,1456704056055505,2.41746387519582,1.2946662749584879,0.5702610059711126
86,1456704056078507,2.418780486636378,1.3903191166443716,0.5671231740919174
87,1456704056102509,2.4429946008656103,1.5634678239685953,0.655099125854949
88,1456704056116035,2.4629956843184617,1.784175546093811,0.8300295155515772
89,1456704056138617,2.4289492239882366,1.9951968298544847,1.0466188638657783
90,1456704056160618,2.3016834250415776,2.136320142111133,1.2339517003100278
91,1456704056176619,2.0783309701217445,2.175502808388868,1.3259752195306131
92,1456704056198620,1.793915075288669,2.127513169696076,1.2906785660870608
93,1456704056220220,1.5004048883414518,2.046124464984565,1.1416729236719172
94,1456704056235437,1.2393771621534395,1.9929476746610313,0.9273426083642698
95,1456704056258437,1.0252741169325645,2.0026432684113558,0.7069960192454456
96,1456704056279438,0.8470394782302163,2.0676005253360423,0.5292882696970025
97,1456704056295473,0.6859606251851295,2.1522522763964846,0.4226128980911449
98,1456704056319244,0.5407951357474639,2.2271943953200086,0.39681130889386346
99,1456704056340474,0.44741164325545946,2.2998199417485288,0.44907619213131544
100,1456704056356255,0.4802767083426089,2.419392163060551,0.5677013992759152
101,1456704056378396,0.7292257178634263,2.64899203939456,0.7323675715617938
102,1456704056402397,1.2562862195841114,3.016900357514773,0.9139076894088012
103,1456704056416152,2.049360454833876,3.4757827055674455,1.0774687625228456
104,1456704056453418,2.996259295838331,3.899328894047013,1.1911907982095156
105,1456704056461416,3.899256513516822,4.127881971848525,1.239171263616168
106,1456704056476417,4.53554130104492,4.045310335584392,1.2336131405436932
107,1456704056498421,4.745079193990394,3.6476674007555787,1.2186050886551862
108,1456704056521937,4.50466128448091,3.0648113692153887,1.2595484864082982
109,1456704056542454,3.944544929740116,2.518966300899315,1.4186302403417876
110,1456704056559447,3.2930722046532024,2.2361491617313787,1.7251819176531509
111,1456704056581449,2.7777484583459016,2.350353481233031,2.1549174670756015
112,1456704056595464,2.5355083454973264,2.84416226477155,2.6295131622475916
113,1456704056619012,2.5745421601313976,3.552388557035344,3.03878955027275
114,1456704056641483,2.7967266118675065,4.227085889658384,3.277998322509663
115,1456704056655484,3.057115354570791,4.634776903621306,3.2866066977438027
116,1456704056678485,3.224225508723175,4.641075418029287,3.072419212223256
117,1456704056701486,3.215843449874391,4.244955212267408,2.7081210109947778
118,1456704056724007,3.006700114432422,3.5552799370965076,2.2998170133603266
119,1456704056738508,2.619078227331352,2.7349278059136206,1.9430849496581206
120,1456704056761509,2.1083633112776807,1.9468083023641756,1.6887998903451964
121,1456704056782550,1.5487694184957954,1.3195615337411057,1.533632671575815
122,1456704056798511,1.0194188029875653,0.9307838514048281,1.4354869308084295
123,1456704056822031,0.5912858422193478,0.7995867035613539,1.342032928843519
124,1456704056843007,0.3175350928570664,0.886064282584307,1.2168371789261578
125,1456704056858945,0.22873030196038321,1.1015134520422403,1.0525910295153624
126,1456704056881734,0.331080314153653,1.33268739045674,0.8695860317030564
127,1456704056903011,0.6048937083545706,1.476056722103696,0.703641434136743
128,1456704056919486,1.0031620730306159,1.4697300639987718,0.5894004661692902
129,1456704056941758,1.453710086270692,1.3089633937472687,0.5450358416396024
130,1456704056962761,1.869340447627981,1.0390432532271872,0.5643602966445518
131,1456704056978779,2.167241861549997,0.7312076111994804,0.6199663755855636
132,1456704057008762,2.292420488301795,0.4543484619938815,0.6754116729046765
133,1456704057022771,2.2346658694047417,0.25412879165181684,0.6993866253033014
134,1456704057038778,2.0299011458707117,0.1451569171592958,0.6748800147162034
135,1456704057061780,1.744545973392906,0.11560717612265302,0.6011920790459763
136,1456704057082781,1.4502698558012077,0.13946697523855456,0.4911057943535521
137,1456704057099019,1.2010367123482184,0.19001391206361515,0.3661157555065261
138,1456704057122237,1.0221772890763368,0.2491688117324805,0.2509267720946067
139,1456704057142329,0.9132883353729063,0.31025287572313975,0.16762788361491116
140,1456704057158192,0.8587845704201017,0.3747863694524075,0.1306251813431548
141,1456704057180193,0.8383703906570633,0.44594520300793955,0.1440252378874596
142,1456704057202199,0.8339629554609521,0.5220784502707682,0.20246354129447972
143,1456704057218709,0.833350320457676,0.5937272330717982,0.2946286964533427
144,1456704057240227,0.8310784075174562,0.646305178057298,0.4072686528875801
145,1456704057262387,0.8265340602370393,0.6672941876258296,0.5274327462531498
146,1456704057279228,0.8204322776118994,0.6532367252401594,0.642133831058904
147,1456704057301350,0.8122358786443399,0.6115738639180304,0.7366809938546001
148,1456704057323185,0.7999397343564837,0.5563404860364136,0.7944605463875547
149,1456704057339384,0.7811721775624347,0.5011585942598101,0.8004311069616937
150,1456704057361149,0.7538205716012335,0.453966548095932,0.7475114637467785
151,1456704057384351,0.7159926358182062,0.41566252842424223,0.6417400963894846
152,1456704057399353,0.6666349623384954,0.38213948356755617,0.50216891262451
153,1456704057428859,0.6076489654456447,0.347857296488569,0.35520486059855805
154,1456704057443362,0.5465340655613705,0.3090404316692077,0.22681164510130197
155,1456704057458363,0.4972815988769253,0.26523301690137707,0.1364948518741712
156,1456704057481365,0.4776375323815127,0.21910044669989176,0.09488027995290559
157,1456704057504377,0.5029079855940897,0.17552506932334022,0.10427550206512894
158,1456704057519155,0.5788759422313242,0.14107934879069167,0.1603108046774456
159,1456704057540989,0.6972768713450701,0.12368874744357318,0.2530009479524967
160,1456704057563990,0.8360717389509521,0.13128595017040243,0.36705053050168923
161,1456704057579131,0.964663161851216,0.16887494026433492,0.48270119597596706
162,1456704057601256,1.0524448351615663,0.23504488935092724,0.5785068277234717
163,1456704057624356,1.0779064760402466,0.3200094583977681,0.636019727041347
164,1456704057639000,1.0350505428519243,0.4069751442511671,0.6448142693728045
165,1456704057661003,0.9347009495459061,0.4773911660853678,0.6059164942774944
166,1456704057684003,0.8008324582319517,0.518870603076051,0.5324569847575356
167,1456704057699040,0.6649987398490613,0.5326223842642135,0.4471327502210433
168,1456704057721030,0.5623036979211652,0.5360178432010353,0.3765468748575236
169,1456704057744038,0.529199276289051,0.5570761896742236,0.34336160864558113
170,1456704057765044,0.5998360846609058,0.6216587653512007,0.3585059491044896
171,1456704057781050,0.7975167937695459,0.7387635677689366,0.41648252285253656
172,1456704057804041,1.1219563621362112,0.8914654814003445,0.49636657126240363
173,1456704057819103,1.5393462052998153,1.0395904876710795,0.569285308119638
174,1456704057841086,1.9855900132243662,1.135444199164708,0.6104128442488124
175,1456704057864087,2.3880698639466638,1.1471575599501953,0.6109535674073391
176,1456704057885117,2.698183276369321,1.0790829794541548,0.5847694356890425
177,1456704057901301,2.9148174735849484,0.9788377276351078,0.5660911763344781
178,1456704057924298,3.079891845667786,0.9255932229676487,0.5984987559103834
179,1456704057944843,3.244511483809316,1.0012761909546144,0.7191114759115416
180,1456704057961555,3.427092619428952,1.2541180316800769,0.9439013311339213
181,1456704057984558,3.5944019234962994,1.6702743301097835,1.259652401468178
182,1456704058004784,3.6819632247434897,2.1689657283753427,1.6253910268918932
183,1456704058021115,3.6403057913962593,2.6268810630605763,1.9822027837087466
184,1456704058043805,3.472116204929373,2.9229280901950125,2.2676613244669603
185,1456704058064807,3.2320378993618593,2.9836760898030694,2.4305260544723213
186,1456704058080808,2.9908983544743917,2.8089911584119713,2.4417829646629885
187,1456704058118023,2.7930790659167193,2.466802785387635,2.29963851094913
188,1456704058125292,2.6372284069434277,2.061395519994375,2.0287436897824556
189,1456704058140752,2.489069773739263,1.6923456718639913,1.6750215567496076
190,1456704058163754,2.311553979212169,1.4227149907635757,1.296301709553343
191,1456704058185037,2.089869694501273,1.2663519815655577,0.9491704832589177
192,1456704058200756,1.8383897381243535,1.1943938297701668,0.6754216133335281
193,1456704058224364,1.5912783860997348,1.15566496559018,0.49357256478069333
194,1456704058244857,1.3859506726037054,1.1023946211498448,0.39897880991303053
195,1456704058260853,1.247652747756572,1.0102193649561442,0.3714081178653772
196,1456704058283853,1.1801419948559473,0.8834775764414313,0.3852472105277511
197,1456704058306878,1.1648709523525635,0.7451628503495731,0.4173557784018271
198,1456704058321154,1.1684697217329036,0.620070994352212,0.45040723029825974
199,1456704058343663,1.1555997561911504,0.5221105582007943,0.4727203961122144
200,1456704058366664,1.1022908915755347,0.45140325827008637,0.4769633836912768
201,1456704058388664,1.0044571569703522,0.39937945246932166,0.4594714835207942
202,1456704058403665,0.8782746680022436,0.356295789285128,0.42048198435461204
203,1456704058426961,0.7529372081198434,0.3165051086126284,0.364653187558613
204,1456704058440281,0.6594413312952366,0.2797692270619543,0.30105940855016905
205,1456704058464282,0.6197706203552489,0.24928345012852873,0.24202797428551595
206,1456704058486402,0.639745953866491,0.2282039107541303,0.20063588485235878
207,1456704058500404,0.7072363858658088,0.21676424304828082,0.1873686081903561
208,1456704058524075,0.796132768472764,0.21160573691434842,0.20687335663945416
209,1456704058546378,0.875197714672729,0.20758056363619884,0.25571939621431306
210,1456704058560402,0.9189336633013672,0.2006767281597067,0.32196564736444383
211,1456704058583380,0.9158325605257248,0.19007813255089387,0.38722391965039776
212,1456704058606397,0.8700926019041337,0.17817450145757346,0.43142149541881186
213,1456704058620673,0.7965522757260164,0.16883816089021966,0.4393476914051163
214,1456704058643485,0.7125672511060627,0.16536189513718072,0.406607852657922
215,1456704058666486,0.6318677219098986,0.16943696282222453,0.3418876868765746
216,1456704058680494,0.5633070725827816,0.18156600355457203,0.26372559812124136
217,1456704058703487,0.5134371917216681,0.20212572470004905,0.1930454785228787
218,1456704058727345,0.48890615257122894,0.231814448827454,0.14525465570421342
219,1456704058740576,0.4952451589193944,0.27080219200246974,0.12571968947590006
220,1456704058763578,0.5325262543453984,0.3170503596008093,0.13013776939116034
221,1456704058786579,0.5921030923874772,0.3650625952252227,0.1485557564029865
222,1456704058807585,0.6583969743354844,0.4062453074515193,0.17020856504291967
223,1456704058824119,0.715633797791927,0.43121632403971977,0.1867075145441259
224,1456704058846613,0.7554989422560254,0.43321513573295056,0.1930079255390229
225,1456704058867613,0.7810008270696489,0.41083778180417985,0.18741866244926705
226,1456704058883650,0.8042774100159616,0.3684742937089569,0.17211315188411158
227,1456704058906651,0.8398587623539016,0.3143612218235223,0.15422714780582497
228,1456704058928122,0.897717259809815,0.25786762779829275,0.14614137706401817
229,1456704058943677,0.9797771675742236,0.20777738770892135,0.16322763334608323
230,1456704058966643,1.0798613006435702,0.17188578037610633,0.21844930879416713
231,1456704058987889,1.1849541581926175,0.15686672227369208,0.31521972729310016
232,1456704059003840,1.2777648524260794,0.1673075904423085,0.44191050010949395
233,1456704059027388,1.342722841751687,0.20386616984242145,0.5721680753427769
234,1456704059047982,1.3747099283062099,0.2617418013884484,0.6734607145818073
235,1456704059063983,1.3844924730898247,0.3310225929445852,0.7217046592638579
236,1456704059094246,1.3945737927284714,0.3995372726912665,0.7145721650279347
237,1456704059107983,1.4260247692950676,0.457340361579095,0.6747004323273726
238,1456704059124309,1.4838707035867988,0.500916935714626,0.639433790395349
239,1456704059145960,1.5494773270985158,0.5348091332044848,0.6426238009932728
240,1456704059168082,1.58428105704045,0.5688714090609513,0.6988708025271486
241,1456704059184192,1.544396323892946,0.6117065357468758,0.7978616504184382
242,1456704059206194,1.402021492061288,0.6644990048848387,0.9099530286399264
243,1456704059228448,1.1668319889366359,0.721049837800169,0.9993618330536171
244,1456704059244035,0.8980806994296865,0.7762736067766702,1.0395949637571118
245,1456704059266038,0.6977392932932494,0.8381481283946892,1.0255207310398178
246,1456704059289304,0.6807562259612333,0.9328771537288958,0.977287046661217
247,1456704059304306,0.9302808257013622,1.0954017830085205,0.9339128420770608
248,1456704059326060,1.4562850580589797,1.3471898660915038,0.9384363102894792
249,1456704059348370,2.1779281298879396,1.6736368481191402,1.0201407732093426
250,1456704059363371,2.941721931868327,2.01658251444389,1.1808983246709657
251,1456704059386424,3.5719960466341294,2.2903973788495073,1.3914621165407028
252,1456704059408370,3.933256910748027,2.4162080271070487,1.6001618004003266
253,1456704059424304,3.9756489806498356,2.3567681712134303,1.7517239573320262
254,1456704059445357,3.7428454132775633,2.1334155511722526,1.80844758540193
255,1456704059468357,3.3422793455866184,1.817364329289368,1.7628822658934644
256,1456704059483358,2.896527335537782,1.5012074125757988,1.6354766540364047
257,1456704059505359,2.500790190959464,1.26427929707863,1.4607237985072326
258,1456704059530156,2.203249394479917,1.145977323096689,1.2717997044235823
259,1456704059543163,2.008998340240907,1.136288424694668,1.091467175733632
260,1456704059565165,1.8957789665737494,1.185370776220116,0.9306191621358305
261,1456704059588335,1.8293128533453749,1.2273839517527592,0.7915892045004794
262,1456704059603365,1.7743396181611033,1.209194718369765,0.6728302381043416
263,1456704059625693,1.7038734052712454,1.1120664218990504,0.5727734207503308
264,1456704059649737,1.607586246510844,0.9562984541543295,0.49174182285701445
265,1456704059663702,1.4948989819053804,0.7871333094529006,0.43159584363062226
266,1456704059686006,1.3881510284316334,0.6508381271795126,0.3937637577177184
267,1456704059709704,1.3081446797781644,0.5745399619197323,0.3770076818826527
268,1456704059723995,1.2608807148010819,0.5589425072796346,0.3762365624012983
269,1456704059745504,1.2335916445348136,0.584013012062174,0.38320046603225294
270,1456704059768505,1.2018899318764777,0.6210779865209061,0.3890153960954731
271,1456704059789797,1.1434689684147685,0.6440113816856863,0.3871787324819979
272,1456704059805507,1.0503226929041583,0.6358026419712408,0.375196461302282
273,1456704059828801,0.9322370278568656,0.590727348233587,0.3540418700294272
274,1456704059850099,0.8098950014764121,0.5138357591736848,0.326302448806317
275,1456704059866100,0.7029570430924278,0.4187488063088044,0.29452969935436424
276,1456704059890101,0.6211076505812865,0.3238602447042334,0.26081762775149886
277,1456704059912101,0.5626561697734227,0.24735643175533908,0.22751780519760234
278,1456704059926114,0.5196308280885076,0.20241380913110366,0.19792702418761973
279,1456704059949124,0.4846888505316302,0.1942292199531983,0.17576039702906626
280,1456704059969126,0.45514655357398237,0.21984681112622984,0.16349836558468409
281,1456704059985126,0.4321695962483784,0.270619564078871,0.16096103854305913
282,1456704060009138,0.41671587355089806,0.3360640871796778,0.16537474385340034
283,1456704060029648,0.4061605841709469,0.407114168629638,0.17299279846217439
284,1456704060045158,0.39500776066922644,0.47693143948662503,0.18121811249006542
285,1456704060069258,0.37957150609028134,0.5390416678351512,0.18991836459968298
286,1456704060090260,0.36267140028050815,0.5848452959570294,0.20119300759887893
287,1456704060106291,0.3539417275246048,0.6033868372052628,0.2177391145088185
288,1456704060129118,0.3648008072312417,0.5845771622863113,0.24060856580486517
289,1456704060149575,0.40100709188674355,0.5243721839206797,0.2673796427812576
290,1456704060165574,0.4570525111586542,0.4290977205193347,0.29176233137254654
291,1456704060188575,0.5157421210337416,0.3167371136211996,0.30532476596161645
292,1456704060211576,0.5543597588476472,0.21437318049133977,0.30102580729156897
293,1456704060225906,0.5556954139964736,0.15220780719878624,0.276971058710779
294,1456704060248379,0.5185735608899199,0.1557125185553719,0.23844977437337894
295,1456704060272382,0.46139155987137886,0.2383545577310568,0.19727079442540063
296,1456704060285380,0.4158553175252965,0.39738902550514793,0.16874784676546245
297,1456704060308381,0.4143744573704589,0.6141619565867402,0.16738731125091624
298,1456704060331687,0.4782220971246347,0.8585582698516192,0.20238587178586218
299,1456704060345980,0.6118921760793742,1.0953693934256232,0.2740041388701271
300,1456704060369211,0.8042632077569866,1.2897793654717333,0.3720079219856577
301,1456704060392252,1.0329960326635592,1.4108656126759964,0.4772413484797654
302,1456704060406249,1.2675731575958769,1.4345291267042817,0.5664580574700103
303,1456704060428755,1.4696443081957116,1.3476579273013392,0.6190951006171086
304,1456704060451941,1.5951683259873715,1.1532235385863316,0.6238250621176529
305,1456704060466205,1.6052520237458683,0.8741733114590013,0.5830594627964045
306,1456704060489206,1.486379028770447,0.5541285483576757,0.5144692497571064
307,1456704060512207,1.2695932016908489,0.25393981622231315,0.44898476068802884
308,1456704060526303,1.0334540608092162,0.04377845580213761,0.424503893601659
309,1456704060548927,0.8836962160157203,-0.009200677533916918,0.47491666455671927
310,1456704060571895,0.9168484473958799,0.14317532313997522,0.6164294757519793
311,1456704060586159,1.1835979288472598,0.5129444545714986,0.836792965760539
312,1456704060609162,1.6665899135341677,1.0628099998970428,1.0946018622344043
313,1456704060632222,2.2815195033630893,1.7047206395446801,1.3323312805540823
314,1456704060645846,2.9030417690031394,2.3171683641253193,1.4988812769461837
315,1456704060668870,3.406977611410115,2.7801036685769227,1.5703953599486504
316,1456704060692115,3.710105012962297,3.014201559345524,1.558256435294661
317,1456704060712849,3.787858485911423,3.0054544711939553,1.5008087284586804
318,1456704060729145,3.6637166964529926,2.803480840857845,1.4438638863152178
319,1456704060760031,3.3828624075098452,2.496692911532648,1.419179246716502
320,1456704060773032,2.9908661840938873,2.1785606055924416,1.4305310313949298
321,1456704060789253,2.529274753547014,1.9207878902179307,1.4543718607498541
322,1456704060812253,2.042894976159,1.761637801794835,1.4547946612393372
323,1456704060833015,1.583926227138998,1.7068867656120612,1.4034635853993245
324,1456704060848969,1.2042629166898755,1.7359684480638118,1.2921034663231705
325,1456704060871970,0.9412202808315642,1.8094048823431252,1.1316556721712103
326,1456704060893272,0.808009388123476,1.8785572765428549,0.9425314950451644
327,1456704060908972,0.7939524499657149,1.8983128950976669,0.7452209076096515
328,1456704060931999,0.870437016243818,1.8392051163739127,0.5566699072787039
329,1456704060953008,0.9968162910364058,1.6936246745995274,0.39088327070506496
330,1456704060969007,1.1252381411655825,1.4739059918192243,0.25936302242654685
331,1456704060991017,1.2074736961290173,1.2052804462658777,0.1694259812968275
332,1456704061013009,1.205873011971915,0.9187454605759038,0.12187962689102581
333,1456704061035021,1.1059767012279127,0.6460691579943815,0.110372523131685
334,1456704061051042,0.9240586422438815,0.41557399294752795,0.12324289609562783
335,1456704061073050,0.7031334824092079,0.24741038795821801,0.14704241276832536
336,1456704061089043,0.49713917590916235,0.14951330890053166,0.17029814080043523
337,1456704061111044,0.35079481476190605,0.11638709763043437,0.18625726235090684
338,1456704061133198,0.28530873730095274,0.13146561633789594,0.19383535941029034
339,1456704061148266,0.2957281129656701,0.172095105568659,0.19657222469809058
340,1456704061170267,0.3585672849745241,0.21551128158163338,0.2000478504339171
341,1456704061195268,0.44373805842919545,0.24426400036058732,0.2088466870464546
342,1456704061208270,0.5247170781105891,0.24985953693529722,0.2244581570054232
343,1456704061230652,0.5839488075552778,0.23381385313951822,0.24500150540753454
344,1456704061254160,0.6139074509024982,0.20585614861185916,0.2664883029113433
345,1456704061268161,0.6157552263392997,0.17970679470364448,0.284439472831229
346,1456704061291313,0.5968252039992006,0.1676520286822818,0.2948217264573641
347,1456704061314164,0.5669622799849506,0.17573887766928534,0.29418081519562667
348,1456704061328958,0.5339830943891751,0.20134934524710335,0.27966191299772714
349,1456704061350697,0.49997828538341804,0.23411880379796357,0.24969371265847976
350,1456704061374697,0.460825952161833,0.26000715643686517,0.2054263047081954
351,1456704061388725,0.4098768988059563,0.267222446475637,0.15215473213326847
352,1456704061410700,0.3443959146367801,0.2520590055219015,0.09969148764323757
353,1456704061441808,0.2718888515436367,0.222823598199775,0.06108056322044275
354,1456704061450781,0.2135463494982556,0.20053207318305602,0.049699704735436084
355,1456704061470782,0.2029371010613808,0.21538496671342192,0.07534940062520018
356,1456704061494783,0.2788843311909006,0.298454927108668,0.1403596313316797
357,1456704061508784,0.47226903122458785,0.46944956633242196,0.23705437055781087
358,1456704061531077,0.7885949292665835,0.7239126670085232,0.34794109475267965
359,1456704061555372,1.1923554766312792,1.0255488657748681,0.4494319281183055
360,1456704061568374,1.603571069327562,1.309719883257251,0.5186757758030122
361,1456704061590374,1.9163635283265887,1.5010950576511968,0.5417784829224708
362,1456704061614376,2.0398437092910275,1.5419049698071152,0.5209859243046955
363,1456704061635174,1.9451819995390396,1.4198369157024116,0.4781762124806738
364,1456704061650993,1.691387658151646,1.1812064896504284,0.4521359183845353
365,1456704061674995,1.4095216722709556,0.9197599110151862,0.4884134940036709
366,1456704061695182,1.2494491879881053,0.7432968807419953,0.6233817292411094
367,1456704061711228,1.3159915877659174,0.7321752147555846,0.8672410758117609
368,1456704061734984,1.6257472053794453,0.9080003584681311,1.1927797650137197
369,1456704061754730,2.1025741649201333,1.2257092673521883,1.536962107967724
370,1456704061771019,2.6103999125893638,1.591921358025322,1.8189250710962874
371,1456704061794993,3.0068958561125108,1.9015986592390723,1.969699910092768
372,1456704061814946,3.195152518934398,2.0772792425947544,1.960410105119039
373,1456704061830958,3.153034913436914,2.0942828443115427,1.814180044538539
374,1456704061854968,2.930124059328398,1.9828839427961793,1.594530124023974
375,1456704061875254,2.616991800381432,1.8097102278180293,1.3752392729747736
376,1456704061890970,2.3042434375445047,1.6485626795720383,1.2072987113788691
377,1456704061913972,2.0518491911506134,1.552965937227823,1.1010606496670783
378,1456704061936268,1.8804043382850095,1.5400391864045326,1.0323029227680365
379,1456704061950277,1.7811687873776185,1.589449430209739,0.9652150066003252
380,1456704061973277,1.7327564618950277,1.6554433043374723,0.8756107237975934
381,1456704061995320,1.7150399220643004,1.6869073005201607,0.7612208078901638
382,1456704062010279,1.7180295940547774,1.648702311648203,0.6376890359663882
383,1456704062033806,1.745297924818799,1.5353264352242155,0.5276895773537732
384,1456704062055348,1.8088210013968777,1.369004690324287,0.45080340085105086
385,1456704062070314,1.9138458320792189,1.1830078427632853,0.41716239284289136
386,1456704062093350,2.0413419927415206,1.0021369468869483,0.42462800443992865
387,1456704062116316,2.1422637183268876,0.8342917424247701,0.45929197212116274
388,1456704062130841,2.1523234108649993,0.6768201687340641,0.4999009009229018
389,1456704062153369,2.021541793270083,0.5290273836138881,0.5256837725990331
390,1456704062176334,1.7416071285394958,0.39919728419576567,0.5244014988086476
391,1456704062190335,1.354173524404465,0.3014913855173852,0.49637466595846763
392,1456704062213338,0.9345632244450479,0.24684066864481372,0.45256150649430094
393,1456704062237096,0.5606643212083073,0.23526737504101944,0.4083958888337573
394,1456704062250351,0.28505722881571194,0.2545442598865067,0.3768997143230802
395,1456704062279353,0.12382639178342673,0.28537780040859406,0.3639275775778961
396,1456704062296354,0.0633770360286392,0.3096304507299637,0.366778288699308
397,1456704062311354,0.07671283814252665,0.31691972277149294,0.3760249081585526
398,1456704062333900,0.13838086671649652,0.30644007721330524,0.37954518168261836
399,1456704062357119,0.23145703046991864,0.28404129437789344,0.36735745713728185
400,1456704062371085,0.3460961457166538,0.25734524665920483,0.33578982127661156
401,1456704062393883,0.47353524324715557,0.23215047635304484,0.28947023369850466
402,1456704062423157,0.6005713432240753,0.2115670149268967,0.23994222080391042
403,1456704062431162,0.7078883575128988,0.19702038526865542,0.2010192502171478
404,1456704062453175,0.7728052298068538,0.18933911578595125,0.18287310301244356
405,1456704062476175,0.7749545868203609,0.18890452161053373,0.18777843971787023
406,1456704062491177,0.7029266243418683,0.19508947530612983,0.20951578047734368
407,1456704062514178,0.5604628154758321,0.20580491070587026,0.23643300195151104
408,1456704062537158,0.3712802426218033,0.21781724345243783,0.2565433323623479
409,1456704062559164,0.1811589328272122,0.22803508155988,0.2625309450293682
410,1456704062573083,0.05446841543143497,0.23546472147034378,0.2548868069137564
411,1456704062596088,0.061614041955793133,0.2430971862377896,0.24206339603816798
412,1456704062618161,0.25658955094956415,0.2586757335399739,0.2373201924858622
413,1456704062634069,0.6501057601229975,0.29316924440953235,0.25305118282879663
414,1456704062656794,1.1899889534612622,0.35615395065160094,0.29479557586374694
415,1456704062678072,1.761986560790126,0.44878715523126744,0.3578393843599437
416,1456704062693951,2.2182039815439327,0.557591338618317,0.42828607599601054
417,1456704062716798,2.427771465179605,0.6540304822622439,0.48825428918010494
418,1456704062737842,2.3297715905412626,0.7032674252776249,0.523114056403346
419,1456704062753313,1.9617286152346964,0.6802654555280814,0.5282075176125486
420,1456704062776315,1.4472517824316622,0.5859696821265523,0.5127701845791591
421,1456704062797315,0.9498927350125248,0.45506060318637537,0.49921644320642256
422,1456704062813316,0.6185855735694372,0.3507271582906538,0.5170256177052891
423,1456704062836580,0.54905789586589,0.34773240498308544,0.5927320816133071
424,1456704062858126,0.7704228934584156,0.5089615807613659,0.7400068335098691
425,1456704062874088,1.251972152805659,0.8622650093213298,0.9544733550003847
426,1456704062896088,1.920488575196407,1.3852804773330576,1.2158089918385324
427,1456704062917089,2.6812329085598874,2.0054464346920464,1.4957003970343894
428,1456704062934134,3.4391246125441497,2.6179145916752407,1.7666465462155931
429,1456704062962381,4.115468840168471,3.1156399554793164,2.0065965232223824
430,1456704062977303,4.653391990875558,3.419197340685904,2.198516213139983
431,1456704062993303,5.010485403208133,3.494674822221272,2.3280011422026288
432,1456704063016304,5.148638197462837,3.3554637221407635,2.3824327073675775
433,1456704063038031,5.0349277285046234,3.0518014695710605,2.353185482817524
434,1456704063053540,4.656689659704453,2.65500100919648,2.239933398820752
435,1456704063076539,4.039592400202605,2.240627971976807,2.0536381994933284
436,1456704063099541,3.2545470967984036,1.871926686431921,1.814672205445554
437,1456704063113543,2.407969580111975,1.5864489229504013,1.5466202978270454
438,1456704063136968,1.619057336490349,1.3912787543069598,1.2707191514668792
439,1456704063159967,0.9913142422966199,1.2693907604664822,1.004859915767668
440,1456704063174004,0.586981266915251,1.1933491284999855,0.7656349415513775
441,1456704063196755,0.413850869530152,1.1387303353787073,0.5688443694131396
442,1456704063219756,0.4301314708259136,1.0908633723952148,0.42638246899432497
443,1456704063234131,0.5642887303463591,1.043502696021555,0.3417333007571669
444,1456704063256716,0.7397250244572464,0.9933644018233158,0.3077512388496765
445,1456704063279718,0.8941871569737908,0.9359794292166876,0.3085361995507288
446,1456704063293969,0.9893525650622997,0.8654796132029291,0.3245174902715047
447,1456704063316721,1.0117182418279829,0.777287472846327,0.3383809896106946
448,1456704063339513,0.9682207192087583,0.6711628398975925,0.3395899859614964
449,1456704063353521,0.8793140922468499,0.5525428350171685,0.3262834049781226
450,1456704063382527,0.7708588316990189,0.4314820189997508,0.304400481855322
451,1456704063399523,0.6658932420105538,0.32000814924677307,0.2845051104125349
452,1456704063413524,0.5781824223572971,0.22949584552457472,0.2772238955115472
453,1456704063437010,0.5099529144297072,0.16909754233731003,0.2888092771956333
454,1456704063459978,0.45491390245333424,0.14491126450850705,0.31858923374048714
455,1456704063473980,0.40473097650217343,0.15879442279819986,0.35930164945254595
456,1456704063496981,0.35491884140911617,0.2063447711537779,0.40000793579465294
457,1456704063519982,0.3068283779165541,0.2750325790635947,0.43035704003243014
458,1456704063535008,0.2654338335505814,0.3445195559944025,0.4444524372154748
459,1456704063556518,0.235384734027914,0.39085377202782834,0.4424228253739418
460,1456704063579520,0.21848781296380257,0.39439616982250836,0.4288354225462883
461,1456704063600521,0.21457113714626105,0.3489482563346834,0.4092968997496064
462,1456704063616522,0.22553169895510572,0.26815278181497115,0.3879938442470599
463,1456704063639822,0.260107772865451,0.1858873405469902,0.36795054696428947
464,1456704063661832,0.3355303807357879,0.14955566926377364,0.3532594642909138
465,1456704063676833,0.4730519053225205,0.2073248074102199,0.3505583404039212
466,1456704063700239,0.6877794493628362,0.3917823841698812,0.36715973506171556
467,1456704063721138,0.9771422522593337,0.7039372164056313,0.4058268154223051
468,1456704063736862,1.3137505552797522,1.1031728874147357,0.45968974819086983
469,1456704063760100,1.646965316673877,1.509321175566882,0.5121259607267008
470,1456704063781003,1.9149576849368917,1.820821492538339,0.5436813329440416
471,1456704063796872,2.0655107895352742,1.9472558220365541,0.5429849808510777
472,1456704063818873,2.0783683258784,1.8465051497684877,0.5152367877444106
473,1456704063847985,1.9777773598581112,1.5507508224480533,0.48318019048400984
474,1456704063857263,1.826822443989427,1.167127194191544,0.48056009490422524
475,1456704063878986,1.7047198132328143,0.8487627674283936,0.5424386639853697
476,1456704063901229,1.677014496738185,0.7445516685567525,0.6965889378794834
477,1456704063916988,1.7716371584075852,0.9449004094105511,0.9567961612413349
478,1456704063938785,1.9715373450933729,1.4434239524287318,1.3171590130792787
479,1456704063960576,2.2281381888182357,2.131043153201231,1.7482420260323142
480,1456704063976579,2.490069903277296,2.8286864246719796,2.197939060356264
481,1456704063998580,2.7320128940087964,3.34855002799749,2.599423625372982
482,1456704064021591,2.964856322246121,3.558524796232433,2.885976053451823
483,1456704064036880,3.216724169523203,3.4218448093921223,3.0083683164015578
484,1456704064058390,3.4942853539563234,2.998358350148136,2.9472537982133873
485,1456704064081392,3.7520452321725006,2.4136481435237225,2.7155967202031372
486,1456704064096393,3.89661728486605,1.813307490606231,2.3531187024225746
487,1456704064118394,3.8295999900821536,1.3194796930936108,1.917506494087869
488,1456704064141256,3.503510350486897,1.0012361353898827,1.4739776796408905
489,1456704064156246,2.9545751572282564,0.8645441132481706,1.0829159885687305
490,1456704064179248,2.2927008049742135,0.8625061598718523,0.7876811708717871
491,1456704064201249,1.657240685163892,0.9209277108644806,0.606874807922163
492,1456704064216250,1.1651530709781013,0.9686233048043468,0.5338323943505574
493,1456704064239184,0.8766160697674473,0.9601635718876427,0.5424674733493947
494,1456704064261840,0.7880628160526427,0.8836326046172907,0.5962398829818732
495,1456704064276841,0.8468050886366412,0.7544098026524815,0.6574217135252962
496,1456704064298843,0.975037416349893,0.6018729127247224,0.6953020072678623
497,1456704064321843,1.094089526398291,0.45610811120191525,0.6922085462432044
498,1456704064336659,1.1445445005201176,0.3385136267881794,0.6456637535575652
499,1456704064366677,1.098945430933164,0.2574899325717086,0.5658021308293512
500,1456704064381679,0.9637335152032449,0.20925230902627534,0.46945114425032236
501,1456704064396679,0.7702194965517043,0.18279540669440383,0.3737159953457178
502,1456704064418680,0.559658049289398,0.16654512747118902,0.2913609867266124
503,1456704064441863,0.36971010041166713,0.1534705477772607,0.22895491324416395
504,1456704064462829,0.22678725688582235,0.14259555571070237,0.18764564339629639
505,1456704064479088,0.1443010866657344,0.13713783383625078,0.16542536998392157
506,1456704064503102,0.12447228251881048,0.14101015122497282,0.159194594933842
507,1456704064523103,0.1614423826823,0.15553013484053732,0.16548467735575398
508,1456704064538574,0.2442377515362394,0.17767302429172246,0.17998212930408136
509,1456704064561204,0.358733588607436,0.20053026766325294,0.19704896229273194
510,1456704064583206,0.488377383263848,0.21569442592786547,0.21059862190229622
511,1456704064606085,0.6142023696175407,0.2164393384190769,0.21668682978126438
512,1456704064621161,0.7154084130255949,0.20052078979585336,0.2164413296398169
513,1456704064643204,0.7722350571889166,0.1720899224278915,0.2169283698324758
514,1456704064658204,0.7722544260283242,0.1426035064056793,0.22853203946880254
515,1456704064681179,0.7187957699588186,0.130157540310655,0.2598521284647966
516,1456704064703194,0.6369653058045017,0.15608288019392666,0.3129386763534568
517,1456704064718201,0.5715756970571115,0.23819230291433777,0.38153257801475343
518,1456704064734211,0.5742256771589928,0.38198719557622013,0.45333105324452927
519,1456704064754981,0.6825464435633771,0.573205412193319,0.5153213530860314
520,1456704064777983,0.9001082594671973,0.7760166619210747,0.5597513727332646
521,1456704064793130,1.1876885876092294,0.9404714857584808,0.587893699601536
522,1456704064815130,1.473610469452823,1.0200385765522118,0.6097918013958789
523,1456704064838202,1.682604586933054,0.9948008748761588,0.640239601633097
524,1456704064852513,1.7718325326832651,0.8899430948978665,0.6930031070928255
525,1456704064874219,1.7552075784562708,0.7772215197497006,0.7757012367663042
526,1456704064897511,1.6999608872258067,0.7528718180587458,0.8869524096566747
527,1456704064920549,1.6939028945741352,0.8973930458871546,1.0161266412315673
528,1456704064935008,1.7994858055676106,1.2343482557442096,1.145206739537736
529,1456704064957798,2.0196352305460143,1.7093682676594053,1.2524030448660148
530,1456704064972528,2.2944522698799044,2.203054986951079,1.3175644762996535
531,1456704064994524,2.530029631697266,2.574616313631638,1.3287602541488053
532,1456704065017748,2.6415397751747935,2.7159200471346474,1.2876741150401154
533,1456704065031963,2.5864087240772466,2.5902454808797253,1.2102555098773646
534,1456704065056043,2.373991167249672,2.2402718638691868,1.1203575129964078
535,1456704065078187,2.054358437201416,1.7664569777708112,1.0382966856677387
536,1456704065093189,1.69734415154197,1.2883501383592728,0.9707128565232166
537,1456704065115144,1.3720388791864033,0.9046875468730821,0.9086337063573214
538,1456704065137873,1.1319808876182869,0.6659227965033326,0.8357855676019845
539,1456704065152352,1.0068428277551789,0.567093355325442,0.7420307800704911
540,1456704065175353,0.9995790600423441,0.5610353773604314,0.6329564720245388
541,1456704065198742,1.0884766039442813,0.5842695324536652,0.529391295729026
542,1456704065212494,1.233829423708571,0.5835884741624895,0.4574971640963496
543,1456704065235160,1.3876223687221807,0.5328483027554564,0.4355163646196836
544,1456704065258034,1.5034475135537817,0.43563699219387364,0.4642513579937848
545,1456704065272706,1.5448711830079955,0.3162505295122369,0.5256586557511196
546,1456704065294701,1.492311388087067,0.20524675720084326,0.589626825432993
547,1456704065317963,1.3482993276317912,0.1261370475602231,0.6252730541888101
548,1456704065332919,1.1388027239917367,0.08774878520470858,0.6117777327840026
549,1456704065354909,0.907409885417694,0.08377896506620722,0.5449713686801643
550,1456704065377908,0.7020850270939956,0.09812665632059073,0.43790603160610236
551,1456704065392915,0.5590966798796909,0.11279113847909401,0.31550094729920486
552,1456704065414877,0.49128817168116623,0.11501242469008757,0.20544848997749002
553,1456704065438152,0.48613087035137276,0.10145966909074809,0.1292671117647194
554,1456704065452393,0.5143598680059152,0.07870340450551719,0.09693082482839381
555,1456704065476387,0.544673059547954,0.06033904110840466,0.10601917246489277
556,1456704065497389,0.5566054982521729,0.061818649592254034,0.1441560946096216
557,1456704065521389,0.54506580237233,0.09439083864783285,0.19316205552781465
558,1456704065534984,0.5158671349972502,0.15976930392749736,0.23404982687717987
559,1456704065557996,0.47732524526565745,0.24740786617356283,0.25225280296930863
560,1456704065580997,0.43422651974976373,0.33631727684753127,0.24200718063109217
561,1456704065595203,0.38747060905902186,0.40248807464530745,0.20856977500208274
562,1456704065618172,0.3389874942848673,0.4305456657723821,0.16758213243691042
563,1456704065640828,0.2992615350248687,0.4249211774303068,0.14175289728563084
564,1456704065655169,0.2934472590402274,0.41402140031821566,0.15522929194835516
565,1456704065678139,0.3611817065094018,0.4430274962969684,0.2259854095301456
566,1456704065700799,0.5461875068305504,0.5565430425186932,0.35756405435487815
567,1456704065715071,0.8760876273665863,0.7777980054826391,0.533516929888787
568,1456704065737800,1.3394887647497316,1.093201826263036,0.7186906490182307
569,1456704065761126,1.8727550726021727,1.4492836347113633,0.869038799617324
570,1456704065775124,2.3686498267606195,1.7649233713384735,0.9467756026167783
571,1456704065797055,2.7100469274928054,1.9565316953739516,0.9340522460588806
572,1456704065820063,2.8162502962027434,1.9684792573718952,0.8391496519740957
573,1456704065834886,2.6781308757303726,1.7976259872840101,0.6939079962684541
574,1456704065858121,2.363477713461192,1.5018350305470065,0.5455141214537762
575,1456704065881115,1.992524186600489,1.1880848185982915,0.4465121602767268
576,1456704065895120,1.6982276916215435,0.9827629395332094,0.44511520290467455
577,1456704065918159,1.5867031596426548,0.9915794348130753,0.5763542849636295
578,1456704065941128,1.7071662768566294,1.2598552607610845,0.8540867958323759
579,1456704065954142,2.037594385664302,1.747116936615938,1.2643087096187364
580,1456704065977143,2.4920778291050585,2.3299182176970663,1.7616636309368063
581,1456704066001158,2.951469146200742,2.8384612739449575,2.272394233929196
582,1456704066015139,3.3071657960800356,3.116223286635948,2.7065654407269
583,1456704066037931,3.497089473272131,3.076931446267305,2.97927135528183
584,1456704066061226,3.516179120198908,2.732736810540512,3.034732436069376
585,1456704066075227,3.4005028857879616,2.1836916991878295,2.8625485960693346
586,1456704066098229,3.1988959589734254,1.5783427323776666,2.4983025382229593
587,1456704066120562,2.948478927958846,1.0642680268512257,2.0100679850002545
588,1456704066135067,2.664284383846045,0.7451201848608716,1.4788395171366773
589,1456704066158152,2.344914218826104,0.6548794466414263,0.9801892441159973
590,1456704066180081,1.9882000356270328,0.7549585803851284,0.5709811614200826
591,1456704066195152,1.6060162569302971,0.954542443042912,0.2825449446513003
592,1456704066218153,1.2288501705866763,1.1474110801561936,0.1201419285423491
593,1456704066240634,0.8977738269653689,1.2513052734615315,0.06743493669581949
594,1456704066254383,0.649199198640615,1.2336729771534432,0.09422387022113256
595,1456704066277390,0.5013153940448876,1.113851139696879,0.16549740101736485
596,1456704066308652,0.44900379637600024,0.943773536018112,0.24948570764698705
597,1456704066314385,0.4684284359513248,0.7794249206772604,0.3225651551272154
598,1456704066337604,0.5271868989448173,0.6573213807425689,0.370379239995417
599,1456704066361110,0.5940901604669753,0.5848847661986255,0.3866447779727253
600,1456704066375112,0.6448169521872181,0.5456378715465277,0.3717970100351484
601,1456704066398123,0.66336943653953,0.5136723137919899,0.33221175663990515
602,1456704066421147,0.6415196150748613,0.46882802419790803,0.279075922998146
603,1456704066437163,0.5785414250440807,0.40543361608046413,0.22600760105631046
604,1456704066458176,0.4823178460516702,0.33218856499135313,0.18580180387155262
605,1456704066480922,0.3709141828599533,0.2654924860657918,0.1674473848275442
606,1456704066495169,0.2717006753160224,0.2206561206161798,0.17421278248823183
607,1456704066518173,0.2152287085789068,0.20506233507847438,0.2028968731651296
608,1456704066540934,0.22441144343004452,0.21565754317382163,0.244150314782472
609,1456704066555143,0.30362822642910053,0.24087281772109073,0.2841634031113978
610,1456704066578172,0.43362541702829716,0.26513718959559807,0.3081691448318606
611,1456704066601136,0.5759398093066912,0.27380119945464554,0.30536389574127865
612,1456704066614945,0.6866983821635746,0.25757112729277354,0.27350155604663456
613,1456704066638038,0.7352590610492805,0.2167213030129728,0.22095110987164662
614,1456704066660545,0.719491797219975,0.1647360365777523,0.16504673988378996
615,1456704066675258,0.6693317617380489,0.12921001856457054,0.12726592963852967
616,1456704066697260,0.6354755642423243,0.14719443312330227,0.12687227184120373
617,1456704066721260,0.6679830224571449,0.2541478241993454,0.17481907439358452
618,1456704066742865,0.7943034883986348,0.469075059360768,0.26949420796366674
619,1456704066757071,1.005277436328251,0.7810340991409568,0.39567444852307054
620,1456704066780067,1.2539258425188338,1.1428428790862115,0.5275570108068014
621,1456704066803133,1.468789101360264,1.4767148749952284,0.6355655494554509
622,1456704066818094,1.5799880013917704,1.6937067781181439,0.6951214415136702
623,1456704066839865,1.5494627875322111,1.7237164176351762,0.6946592182686269
624,1456704066863378,1.390906932435279,1.546133476384756,0.6403775580292539
625,1456704066877639,1.168058307495459,1.2071583606551992,0.5564493720261586
626,1456704066899615,0.9723407217567147,0.8130689811515879,0.4811848613903136
627,1456704066922599,0.8915387475188937,0.4992023896096023,0.4606333505198223
628,1456704066938105,0.9823789377049017,0.385660659066179,0.5402048595225133
629,1456704066959962,1.2551397480975783,0.5359897769935283,0.7537279624028208
630,1456704066983999,1.6740231151793878,0.9333586939763244,1.1109433771278185
631,1456704066997633,2.173238542659555,1.4832516447098882,1.588039420575676
632,1456704067019967,2.68305715254278,2.043858965206182,2.1268694781373223
633,1456704067042977,3.153760513252572,2.4746555273613,2.6449914488372293
634,1456704067057521,3.564195428867403,2.6834752912608617,3.053895985785653
635,1456704067079485,3.910276657348831,2.6514234999410293,3.279837263132474
636,1456704067102648,4.183001496075119,2.4272099774822853,3.2808892441590882
637,1456704067117749,4.353210125086423,2.099112484078331,3.0557147347576783
638,1456704067139743,4.375202953386518,1.7609503592842772,2.6433185519813147
639,1456704067162715,4.209048340288719,1.4851256409254312,2.1150513537554154
640,1456704067178018,3.8495643353325284,1.307846147419327,1.5595297522861233
641,1456704067199980,3.343454793313405,1.2264408407300469,1.0620990162524555
642,1456704067222753,2.7804204711464715,1.2075130368556026,0.6843950383287823
643,1456704067237752,2.2599037607465733,1.2037201630673788,0.45202820267086274
644,1456704067259740,1.8520321944236982,1.1736926266426886,0.3555190484225162
645,1456704067282777,1.5755432209077989,1.096718551046456,0.3627526776302134
646,1456704067297742,1.403198166919499,0.9757456078139981,0.43533643255849835
647,1456704067319744,1.2866072886980788,0.8291748228330658,0.5405036781814342
648,1456704067343029,1.1825753966253139,0.6785518151659246,0.6546966774866927
649,1456704067358055,1.0677762383926488,0.5400310530686503,0.7609165630522201
650,1456704067379804,0.9401274917626996,0.4225847889098953,0.8450297739349006
651,1456704067403024,0.8128684836744346,0.33055824678267354,0.89485612541998
652,1456704067419052,0.7071839235762336,0.26649168463859846,0.9020904993718248
653,1456704067439814,0.6448151514835903,0.2319108673265273,0.8646218482146673
654,1456704067463021,0.6396391415551829,0.22629604108432905,0.7872707819934034
655,1456704067478068,0.6894886134029949,0.24561894953691213,0.680738222640361
656,1456704067500111,0.7728829460315183,0.2816483448997148,0.5594954975848039
657,1456704067523108,0.8546063933011715,0.3226832917444577,0.43932745353249225
658,1456704067537817,0.8991102517381714,0.35591279215584853,0.3350981161384166
659,1456704067559328,0.8857036340965588,0.37094112070294044,0.25908835297992966
660,1456704067582334,0.8179453953616548,0.363212391595079,0.21974619091786812
661,1456704067597369,0.7224820889898287,0.33576897842120357,0.22034260486313423
662,1456704067619527,0.6381193936447608,0.2984937950025514,0.2573960608963915
663,1456704067642751,0.6005537240668808,0.26527338023230407,0.3196740150023251
664,1456704067657047,0.6292854247545931,0.2502010093693224,0.3892730413510624
665,1456704067679141,0.7212689632836016,0.2636413306136312,0.44577096394532656
666,1456704067703047,0.8528183736422577,0.30875198111098184,0.4725810484538375
667,1456704067718062,0.9884758122099593,0.37956215031817214,0.46273905672095983
668,1456704067740277,1.0934484848114217,0.46193928134653345,0.4212080908136609
669,1456704067762465,1.1451830800368272,0.5377209366113398,0.36258719280804264
670,1456704067777548,1.1400995950185333,0.5905632296058075,0.30530935664128067
671,1456704067799506,1.0933699483450203,0.6109858058242595,0.26475971486423755
672,1456704067830525,1.0320099781152803,0.5984151260058589,0.24814888298631976
673,1456704067837516,0.9835967914736271,0.5597208837021665,0.2533720835275631
674,1456704067859595,0.9644295383929056,0.5057245742367477,0.2721182469765702
675,1456704067882447,0.9717307140071038,0.4477145786017294,0.2949021479593017
676,1456704067897316,0.983848412628522,0.39491305803753957,0.3146520399280175
677,1456704067919600,0.9696690100933254,0.3528944449225963,0.3273036527075859
678,1456704067942825,0.9038214619614157,0.3231458006575489,0.33072473266383473
679,1456704067957669,0.780140559143884,0.3040432662308058,0.32409732493774035
680,1456704067979339,0.6160896565472919,0.2925496245983121,0.30825613704370275
681,1456704068002346,0.44627087524077463,0.2851994497144283,0.2859587238476925
682,1456704068025340,0.30935112741003723,0.27786999704935433,0.2612273770371083
683,1456704068039858,0.23494009282571862,0.2655650126742827,0.23789922776623193
684,1456704068062438,0.23513789416488987,0.24383390196054225,0.21819065309668265
685,1456704068085642,0.30253336692385474,0.21183688323387273,0.2022008434815227
686,1456704068099588,0.41421235267000955,0.17497860069757395,0.18888187948480156
687,1456704068122667,0.5399106159882657,0.14456294386815904,0.17812081806382035
688,1456704068145626,0.6514651958519014,0.13368170273911267,0.17261742614971023
689,1456704068159884,0.7302847564533604,0.15114341047268262,0.17793155089580015
690,1456704068182876,0.7702666445779585,0.19667665310602986,0.19997216607695853
691,1456704068205907,0.7757388370691652,0.26003652980412983,0.2409859687066685
692,1456704068219944,0.7566567873036351,0.32461314555399473,0.29639985891035747
693,1456704068242517,0.7245355530743834,0.373910092463957,0.35449797340596295
694,1456704068265529,0.6912462095563385,0.3978721427201219,0.3993242456715288
695,1456704068279528,0.6696692660345493,0.3961166400066752,0.4158384759974614
696,1456704068302811,0.6729765764045091,0.3767002808415372,0.39579131492816266
697,1456704068325688,0.7105375355371376,0.35138038376374114,0.34245719475080355
698,1456704068339993,0.7822965381355758,0.33012989504619916,0.27203374400912017
699,1456704068362441,0.8759375343629128,0.3178648218728549,0.20999183178909867
700,1456704068385734,0.969739604324238,0.31472986527176694,0.18257422466356574
701,1456704068399726,1.0402974770019466,0.3188700225018944,0.2062029872589068
702,1456704068422446,1.0712626969736456,0.329198960017391,0.27924194952894194
703,1456704068445600,1.0587259898733616,0.34627462769990675,0.3803806377910574
704,1456704068461301,1.0107968164712302,0.37113118400620276,0.4755600224258456
705,1456704068483265,0.9419022770225433,0.40324180411465166,0.5312999433992452
706,1456704068505600,0.8649065445144803,0.43915511595318074,0.5284147387933911
707,1456704068519559,0.7857780935783679,0.47285380196172383,0.46929392193324887
708,1456704068543084,0.7049059429496551,0.49758902699234464,0.37540040051332807
709,1456704068565674,0.6246481965872497,0.5077075019461563,0.2771042165793418
710,1456704068579638,0.5565913884412473,0.4992768074603958,0.20154201783479261
711,1456704068603004,0.5206669851382083,0.4699919305521649,0.16399540239299784
712,1456704068625714,0.5344719790676185,0.4197547689276751,0.16546567054065006
713,1456704068639702,0.5994873014306747,0.35216112000244487,0.1959604148152226
714,1456704068662180,0.693999156244518,0.2754346933049825,0.24088471859093716
715,1456704068685440,0.7785441706539996,0.20142455292808475,0.28715094091128435
716,1456704068700178,0.8119602476198828,0.1430553877247528,0.32629264188496376
717,1456704068723178,0.7695464269917714,0.11180003404744814,0.353917527786508
718,1456704068744480,0.6537376389496405,0.11596306332004289,0.367232294446708
719,1456704068759795,0.49289689666228265,0.15908146060627418,0.3634711317894433
720,1456704068782655,0.3308500223065676,0.23764191613475702,0.34101099492280246
721,1456704068804795,0.21308026394093724,0.3388759707724699,0.3024519380934774
722,1456704068819796,0.17426155425995063,0.44094109265944836,0.25683745856943435
723,1456704068842799,0.22939254390311953,0.517523835112043,0.2182961629753595
724,1456704068864797,0.3696151140234176,0.546436073639577,0.2008075454271067
725,1456704068879798,0.5633881020823926,0.5185642142932415,0.21158558696635343
726,1456704068903092,0.7628624982532931,0.4421702502930693,0.2465992258966877
727,1456704068925064,0.9141324735485257,0.33971214580204667,0.2906065352292977
728,1456704068939822,0.9693160337935494,0.23874503814971273,0.32191450775758607
729,1456704068962839,0.8981802504917599,0.16166656459910667,0.32012256695373614
730,1456704068984840,0.6966376575607458,0.11891189448899271,0.27395075658584456
731,1456704069000010,0.3892899177581969,0.10752562299013733,0.18610641583813012
732,1456704069023018,0.024532842950176402,0.11420906225419665,0.07311151547084023
