,timestamp,roll,pitch,yaw
0,1456704054358492,2.8164834119065238e-05,2.649013372133965e-05,2.0944602135263015e-05
1,1456704054374493,0.0001294837551404532,0.0001760762210063049,0.0001451564211376222
2,1456704054397494,0.00023809070308366948,0.0002967076467430271,0.0002492348554152631
3,1456704054420024,0.0003581469668845928,0.0003666435639725446,0.0003184678225639703
4,1456704054434513,0.00048748936302097387,0.00037789453999279894,0.0003468907534024011
5,1456704054457509,0.0006153371522906179,0.00033772145852872793,0.00033932042063991965
6,1456704054479510,0.0007228593296960197,0.0002650653548734814,0.000309838392871023
7,1456704054519058,0.0007878506832192851,0.0001834349187646319,0.000276650836930077
8,1456704054521056,0.0007924879604478505,0.00011349289894785893,0.000255377716088652
9,1456704054532524,0.000730909351187963,6.826736769431421e-05,0.0002536687698870302
10,1456704054554526,0.0006129816226204896,5.1996421202804604e-05,0.0002691755868392643
11,1456704054578526,0.0004623254749325057,6.178097167580951e-05,0.00029138734113668313
12,1456704054592527,0.00030926687063309035,9.042650222198246e-05,0.00030658640176354975
13,1456704054636540,0.00018155841249830527,0.00012899020541929865,0.0003042301926320836
14,1456704054644541,9.658228209948138e-05,0.000168326760175101,0.0002822802593703554
15,1456704054656542,5.79017278549152e-05,0.00019996745845593048,0.0002488631625025241
16,1456704054674738,5.689233380434673e-05,0.00021721149458913094,0.00021892701465678008
17,1456704054697666,7.796414335769133e-05,0.00021679567906042544,0.00020710757651646748
18,1456704054712546,0.0001047840058705421,0.00020038039068750438,0.00022031823197159352
19,1456704054735431,0.00012525807411820086,0.00017452234319297253,0.000253934106202126
20,1456704054758477,0.00013413859772254484,0.00014852873075309637,0.00029352232562658483
21,1456704054772107,0.00013302917609978607,0.0001310444421428755,0.00032109319557363893
22,1456704054795365,0.00012807375741491386,0.00012710107307425193,0.0003226036202699881
23,1456704054818410,0.00012618756851488094,0.00013696911882728349,0.00029317862141724785
24,1456704054831619,0.00013138124387953099,0.00015699972130745813,0.0002381436135630436
25,1456704054854621,0.00014285283091524374,0.00018163267482609888,0.00017019392270330782
26,1456704054877623,0.0001556281610966592,0.00020538586513954666,0.00010451484760480509
27,1456704054891623,0.000163168737673156,0.00022394840785288107,5.395143346630298e-05
28,1456704054915128,0.0001604849152992506,0.00023423179171221648,2.5766925129485985e-05
29,1456704054937635,0.00014625838454087334,0.00023396320025023733,2.0659820060309115e-05
30,1456704054953637,0.00012305489086642332,0.00022166554263900774,3.388421511343236e-05
31,1456704054974638,9.563498717913141e-05,0.00019748155429717305,5.770456773256824e-05
32,1456704054997639,6.83921237740191e-05,0.0001645417702539211,8.412778805014374e-05
33,1456704055013912,4.3516718811533036e-05,0.00012994457362666128,0.00010698752391277961
34,1456704055034651,2.112332649071225e-05,0.00010429161730234109,0.00012294862252729155
35,1456704055064653,1.4579836211548906e-06,9.923397582812079e-05,0.0001315615014179504
36,1456704055073653,-1.1921053748097208e-05,0.0001234924957366713,0.00013479483842290362
37,1456704055094654,-9.867560425780619e-06,0.0001788934569532792,0.0001364139993712336
38,1456704055118378,2.1799818459888702e-05,0.0002584777018520286,0.0001413232731230531
39,1456704055134384,9.784608057217647e-05,0.0003481720173583945,0.00015478941762300674
40,1456704055155383,0.00022600613160636042,0.00043188587989081257,0.0001814150485299911
41,1456704055178446,0.00039922281430562414,0.0004979772010636046,0.00022379538322021914
42,1456704055194367,0.0005922392199287876,0.0005438970223168808,0.0002809740891696088
43,1456704055215171,0.0007662755796049225,0.0005762305134920015,0.00034724072166124385
44,1456704055238183,0.0008819122895897147,0.0006054286187634607,0.00041240763980686287
45,1456704055254385,0.0009151748172390145,0.0006376319102068447,0.00046475918495744956
46,1456704055274186,0.0008685271897977105,0.0006684766220223362,0.0004964940768737994
47,1456704055298187,0.0007703013526386517,0.000683512995543222,0.0005090476909473869
48,1456704055314187,0.0006625533559635678,0.0006661330063315821,0.0005142874924377428
49,1456704055334200,0.0005837908254407591,0.0006088210906935219,0.0005292373947829663
50,1456704055358201,0.0005551376593368764,0.000520855305012908,0.0005662317109957743
51,1456704055374203,0.0005758904907626761,0.0004275241062893604,0.0006240969639067062
52,1456704055394203,0.0006292816500933219,0.0003611438481386052,0.0006859596107687716
53,1456704055418224,0.0006941271546795978,0.0003488514676489715,0.0007254480430089235
54,1456704055434232,0.000755385891835914,0.00040328985584662413,0.0007183434668977168
55,1456704055454234,0.0008080876926709434,0.0005198242041626082,0.0006541582852056995
56,1456704055478234,0.0008536848613449117,0.0006799583095635901,0.0005425393238719056
57,1456704055500236,0.0008925474327656956,0.0008576422792071268,0.00041196804608215217
58,1456704055514236,0.000918228464132161,0.0010247673025379023,0.0003016017889554476
59,1456704055537253,0.0009175258376684347,0.0011542642235088836,0.0002498065576228075
60,1456704055559255,0.0008765246778518584,0.0012220966340089076,0.000283760503615756
61,1456704055574371,0.0007890688124338525,0.0012107348134165164,0.0004131995635791508
62,1456704055597257,0.000662794819813012,0.001115099930710509,0.0006289854901382867
63,1456704055619769,0.0005196645953822664,0.0009484017781033536,0.0009053443061633094
64,1456704055635284,0.00039112101831724017,0.0007429349534668574,0.001204248307353152
65,1456704055658290,0.00031006200739850054,0.0005427215765860893,0.0014811280474964403
66,1456704055680287,0.0003019326839610609,0.00039009659510824815,0.001691893867768904
67,1456704055695288,0.0003765255512954073,0.00031245698285303704,0.0018012435490491765
68,1456704055718808,0.0005221715821451825,0.0003150953396535147,0.0017911786683253025
69,1456704055740370,0.0007050758845862852,0.00038235079486613244,0.001667225317760668
70,1456704055762316,0.0008765561210274855,0.00048538617993423876,0.0014593216028708667
71,1456704055778371,0.0009877804717955154,0.0005926386498195591,0.0012154854624797848
72,1456704055800370,0.0010066394889635473,0.0006787682075348488,0.0009888919578862133
73,1456704055816381,0.0009290905066056323,0.0007294535929838183,0.0008219299619611727
74,1456704055838485,0.0007800986599677349,0.0007417030574519541,0.0007332101357197664
75,1456704055860492,0.0006045466630971787,0.0007211365653200915,0.0007140505820219509
76,1456704055875336,0.0004522949684087074,0.0006782135182277539,0.0007379839505775672
77,1456704055899337,0.00036294405980611186,0.0006249122362852468,0.0007801608023344913
78,1456704055920352,0.00035534801983918825,0.0005726743943403497,0.0008366413639829961
79,1456704055935366,0.0004246134711438371,0.0005317824796244224,0.0009319004544364202
80,1456704055958362,0.0005461288446610611,0.0005114527530166234,0.001108764180943798
81,1456704055979364,0.0006843084084588963,0.00051910965346137,0.0014048908309882138
82,1456704055995393,0.0008038535463325573,0.0005578281772942298,0.0018272729349419691
83,1456704056027222,0.0008814053044080053,0.0006231477004505107,0.00233702646138941
84,1456704056039707,0.0009138935382571404,0.000702302518977615,0.0028516986059255412
85,1456704056055505,0.0009187216780729198,0.0007778197996161471,0.0032649439946447222
86,1456704056078507,0.000923914956845127,0.0008338021409201867,0.003476890821209166
87,1456704056102509,0.0009529940295976229,0.0008605807219323943,0.0034247330284905737
88,1456704056116035,0.0010136354232516747,0.000854810282445706,0.0031029495803166583
89,1456704056138617,0.0010968044721199862,0.0008166252013027778,0.0025661391609899742
90,1456704056160618,0.00118622966671272,0.0007489226331993037,0.0019138847371594615
91,1456704056176619,0.0012716873729874483,0.0006623634589861113,0.0012642639266271438
92,1456704056198620,0.0013568278434364005,0.0005837756956663106,0.0007270991712905089
93,1456704056220220,0.0014551782181563967,0.000560216552407345,0.000386349445097888
94,1456704056235437,0.0015759404722078426,0.0006510502223342583,0.0002937282227852539
95,1456704056258437,0.0017089236229859191,0.0009067048426144235,0.00046855267962043177
96,1456704056279438,0.0018193397835072043,0.00134141452815404,0.000897636422932773
97,1456704056295473,0.001857771009620058,0.0019131116547529959,0.00153325754982389
98,1456704056319244,0.0017826442892016632,0.002523104110261179,0.002292112791673527
99,1456704056340474,0.00158594149981185,0.0030407199774689303,0.003060281476475995
100,1456704056356255,0.0013100250656632932,0.0033469891054208,0.0037079830265767987
101,1456704056378396,0.0010462222297752078,0.003381792661673214,0.004114009486611352
102,1456704056402397,0.0009135252832182568,0.003174658039644197,0.004194648656601609
103,1456704056416152,0.0010239491226143177,0.002842721544824392,0.003928100994444968
104,1456704056453418,0.0014450775439731182,0.002551221168685659,0.003365118717744188
105,1456704056461416,0.0021699421300035437,0.00244952357985424,0.002620458888685585
106,1456704056476417,0.0031032164170847055,0.0026106982113145226,0.001846159288692347
107,1456704056498421,0.004072170728478381,0.0030041811456896256,0.00119386138968195
108,1456704056521937,0.004866487603076877,0.003514896218417194,0.0007770666107001537
109,1456704056542454,0.0052988849892755905,0.003997251458807975,0.0006442948604497451
110,1456704056559447,0.005264539901191558,0.004335177308542597,0.0007709569664123092
111,1456704056581449,0.004774045494477013,0.004479853324817161,0.00107252195492615
112,1456704056595464,0.003946333625904255,0.004451590704121079,0.0014353492152904663
113,1456704056619012,0.0029661319701915745,0.004310667481275709,0.001755188522818385
114,1456704056641483,0.0020244698759455835,0.004115130515311318,0.0019689248103707336
115,1456704056655484,0.001265898428946591,0.003888379055137598,0.0020665549185606676
116,1456704056678485,0.0007616374435242364,0.003614182185918008,0.002079432983836711
117,1456704056701486,0.0005147592040151769,0.003260987144630328,0.002053043680007719
118,1456704056724007,0.0004874016278836906,0.0028176678846565484,0.0020198292474093702
119,1456704056738508,0.0006306307299104093,0.0023144697876552665,0.0019853724093199477
120,1456704056761509,0.0009010385694552956,0.0018149517932431302,0.0019319857130958074
121,1456704056782550,0.00126061899062642,0.0013872060969193126,0.0018339544975682636
122,1456704056798511,0.0016677282662569304,0.0010757421578583785,0.001673979027007665
123,1456704056822031,0.0020700803530099648,0.0008902973695174338,0.0014525562808539651
124,1456704056843007,0.0024066262167618895,0.0008128579318268462,0.0011883683085589512
125,1456704056858945,0.002618720333112206,0.0008128970573133108,0.0009129595021180938
126,1456704056881734,0.002666004755560221,0.0008594912011268759,0.0006637035832063131
127,1456704056903011,0.002540490356390323,0.000925230329488656,0.00047656714998775584
128,1456704056919486,0.002273210701392434,0.0009846175698629913,0.0003784563149229717
129,1456704056941758,0.0019300996866978772,0.0010132102466251975,0.0003800566067952075
130,1456704056962761,0.0015962081903928332,0.0009911654704584446,0.000472179150449213
131,1456704056978779,0.0013506386066728783,0.0009094697803413465,0.0006284756699838855
132,1456704057008762,0.0012394477065385213,0.000774140049479873,0.0008142188984285462
133,1456704057022771,0.0012579488768481024,0.0006051143402466119,0.000997166375698088
134,1456704057038778,0.0013524821083660396,0.00043019797870428146,0.0011554263657906209
135,1456704057061780,0.001442943978806587,0.00027691690577408826,0.0012794217867675432
136,1456704057082781,0.0014560459354198375,0.0001652611867568971,0.0013684891369194787
137,1456704057099019,0.001353421583816686,0.00010325073953061986,0.0014249156523691627
138,1456704057122237,0.0011423853353442347,8.624065605840701e-05,0.0014485147365957884
139,1456704057142329,0.0008673219419335662,9.992961813938718e-05,0.0014339313093975673
140,1456704057158192,0.0005892624474085081,0.00012593073975343793,0.0013717695511215116
141,1456704057180193,0.00036456305319652876,0.00014789753310603574,0.0012536393006635635
142,1456704057202199,0.00023030414134536678,0.00015611329264922954,0.0010798787465099973
143,1456704057218709,0.00019822521862524796,0.00014923271552890656,0.0008668274388101291
144,1456704057240227,0.00025533934224051803,0.00013306251116333655,0.0006491634013439789
145,1456704057262387,0.0003691579922325442,0.00011725114993546924,0.0004738169584280375
146,1456704057279228,0.0004967009104536921,0.00011119443873332508,0.00038591350386864824
147,1456704057301350,0.0005965302242410477,0.0001204438162482237,0.0004120848613862605
148,1456704057323185,0.0006411313487925287,0.00014460862275772582,0.0005489625022105326
149,1456704057339384,0.0006248955737660716,0.000177280582903115,0.0007627206074223253
150,1456704057361149,0.0005636433256591502,0.0002080253136410082,0.0010001419564849574
151,1456704057384351,0.0004857107113405032,0.00022601331118774932,0.001206055447955231
152,1456704057399353,0.0004191493298612338,0.0002242017905398047,0.0013394176478592514
153,1456704057428859,0.0003810247668579535,0.00020228991779237845,0.0013820083831453274
154,1456704057443362,0.00037272728138238966,0.000166830293191668,0.0013381263393516824
155,1456704057458363,0.00038199311343408977,0.00012835738643373064,0.0012277517425821158
156,1456704057481365,0.00039001443889049935,9.71547378208237e-05,0.0010773068529269078
157,1456704057504377,0.0003808968089044934,7.985131712024382e-05,0.0009115908850676206
158,1456704057519155,0.0003503257805385797,7.822810877214877e-05,0.0007490563731021448
159,1456704057540989,0.0003102930704474655,9.032162610054349e-05,0.0006011044283418893
160,1456704057563990,0.00028730351934893244,0.00011283838908994941,0.00047454670491010236
161,1456704057579131,0.00031338560520118844,0.0001433599571105936,0.0003750504121662849
162,1456704057601256,0.0004125385168059258,0.00018105586038194308,0.0003089963276304711
163,1456704057624356,0.0005881743172056626,0.00022551707925038818,0.0002823433580979524
164,1456704057639000,0.0008173024200200643,0.0002743613176839824,0.0002973719633362464
165,1456704057661003,0.0010543473293388385,0.0003210678351958982,0.00034996436395331174
166,1456704057684003,0.001243660497187089,0.0003548744900007625,0.00042985931862253113
167,1456704057699040,0.001337087592056063,0.00036401502157780647,0.0005242023729521121
168,1456704057721030,0.0013116905923091077,0.00034170311017322276,0.0006223026555302513
169,1456704057744038,0.0011822592569731064,0.0002919565104693166,0.0007184306190500171
170,1456704057765044,0.0010037280497525753,0.000231551902789025,0.0008104722965500309
171,1456704057781050,0.0008608388848086714,0.00018615348504552611,0.0008950382303818497
172,1456704057804041,0.0008461869626892406,0.00018180991262334585,0.0009627541818993355
173,1456704057819103,0.0010316088680038856,0.0002353842631018755,0.0009984496708796515
174,1456704057841086,0.0014404682657540924,0.00034788047248193857,0.0009881453223324046
175,1456704057864087,0.0020299846458195553,0.0005033601591634452,0.0009295643828544441
176,1456704057885117,0.002693062951606001,0.0006741771001168393,0.000839437258919128
177,1456704057901301,0.0032851313751147927,0.0008313348941646426,0.000752144707966016
178,1456704057924298,0.0036708548330780457,0.0009568562102011302,0.0007091513589100565
179,1456704057944843,0.0037725960468934765,0.0010529873701066326,0.0007433148355455456
180,1456704057961555,0.0035972506168937502,0.001142302251422238,0.0008639564726839225
181,1456704057984558,0.003227066469816228,0.001255847423368941,0.001048203709541974
182,1456704058004784,0.002779233184530554,0.0014134024701247228,0.0012430596179758648
183,1456704058021115,0.0023563346035927702,0.0016064289160619013,0.00138026536058869
184,1456704058043805,0.0020134026245921463,0.0017949489321964739,0.0014006667643528435
185,1456704058064807,0.0017544914390931192,0.0019226316267222788,0.0012782173860414936
186,1456704058080808,0.0015523551842942453,0.0019432030409811218,0.0010315586134776072
187,1456704058118023,0.0013738647193421553,0.0018430005213632623,0.0007168872431252972
188,1456704058125292,0.0011969070196836448,0.0016460215947960237,0.0004061419419662981
189,1456704058140752,0.0010147255459066885,0.0013997345865275881,0.0001618549451995209
190,1456704058163754,0.0008317936312375426,0.0011528883923212876,1.9767306531543077e-05
191,1456704058185037,0.0006578533036955728,0.0009392387236302847,-1.579901755924106e-05
192,1456704058200756,0.0005044913542623946,0.0007728502569734415,3.430609325559091e-05
193,1456704058224364,0.00038421309347744974,0.0006515151085583469,0.00013559656729801098
194,1456704058244857,0.00030913388573970896,0.0005627855191605295,0.00025140280021790937
195,1456704058260853,0.0002872720765837792,0.0004902176089049834,0.00035126601422749785
196,1456704058283853,0.000317460384938174,0.00041951805546648017,0.0004156104896900913
197,1456704058306878,0.0003860391560875159,0.0003434972145462195,0.00043711673166393076
198,1456704058321154,0.00046824458721435064,0.0002638313477660799,0.0004193295360433458
199,1456704058343663,0.0005349801827430156,0.0001887780064012962,0.00037306094595428125
200,1456704058366664,0.0005628015021853542,0.0001282125297706224,0.00031167819800283924
201,1456704058388664,0.0005428894350166515,8.86539274124928e-05,0.0002469880440208368
202,1456704058403665,0.0004846000623715705,7.05636003235873e-05,0.0001871971107544963
203,1456704058426961,0.0004113369395808093,6.871735698085781e-05,0.00013722910891155637
204,1456704058440281,0.0003503053269252877,7.488229294533164e-05,0.00010038179014950957
205,1456704058464282,0.0003210200125621552,8.115939434379678e-05,7.97030590661442e-05
206,1456704058486402,0.0003279978289361677,8.24660189205017e-05,7.7852357730535e-05
207,1456704058500404,0.000360496409068793,7.74241030089673e-05,9.542300319303801e-05
208,1456704058524075,0.0003983507574807106,6.773636659901651e-05,0.00012897249875174917
209,1456704058546378,0.00042049071407819933,5.6574588655675105e-05,0.00017042972976766645
210,1456704058560402,0.00041265789477512013,4.6686837123995625e-05,0.0002088304968659003
211,1456704058583380,0.0003721207725348811,3.9034790136648824e-05,0.00023391979201952795
212,1456704058606397,0.00030843762604862207,3.266731046524791e-05,0.00023990346396607188
213,1456704058620673,0.0002404218149027952,2.6046292716845735e-05,0.00022738643891794406
214,1456704058643485,0.00019065489472018255,1.9283863353646317e-05,0.0002025205839088781
215,1456704058666486,0.0001795298505600427,1.607731896543235e-05,0.00017391050785772586
216,1456704058680494,0.00022031369995132602,2.3940573997479326e-05,0.000148915123324496
217,1456704058703487,0.00031577096692556397,5.1913529831995656e-05,0.0001311624836323354
218,1456704058727345,0.00045648132595992356,0.00010618175116657681,0.00012045836510838027
219,1456704058740576,0.000621135999111262,0.00018537988329128847,0.0001151045812839614
220,1456704058763578,0.0007792817266847308,0.00027805692126337363,0.00011530624440048307
221,1456704058786579,0.0008968879901893363,0.00036432158590741663,0.00012545566133505254
222,1456704058807585,0.0009444222675106232,0.00042191676355939306,0.00015341767247453974
223,1456704058824119,0.0009056000806041004,0.0004345050132605981,0.0002066556369960299
224,1456704058846613,0.00078350605383523,0.00039831403329340984,0.0002870798787042328
225,1456704058867613,0.0006012019315032523,0.000323915722809664,0.0003874547483608472
226,1456704058883650,0.00039672717682642615,0.00023255219266387757,0.0004915745284056205
227,1456704058906651,0.0002152237178680327,0.00014915949393225442,0.000578683219084712
228,1456704058928122,0.00010107137556425738,9.528066697225533e-05,0.0006305275637280013
229,1456704058943677,9.070391890231642e-05,8.419049185321346e-05,0.0006379830440963612
230,1456704058966643,0.00020499696663890714,0.00011888435416047952,0.0006044167684439958
231,1456704058987889,0.00044090718935879675,0.00019236201797499306,0.0005448554837649923
232,1456704059003840,0.0007650878126325517,0.0002893980129063256,0.0004820839968195797
233,1456704059027388,0.0011149196018009765,0.00038944896685819976,0.0004413475192079294
234,1456704059047982,0.001411362989138025,0.0004707935442478724,0.00044447018227480325
235,1456704059063983,0.00158223087680099,0.0005157729328222561,0.0005036589420609512
236,1456704059094246,0.001587501571028781,0.0005159688576372838,0.0006161269231160039
237,1456704059107983,0.0014355744057623558,0.0004751405826022376,0.000761956720256543
238,1456704059124309,0.0011828914074483393,0.00040806891778900596,0.0009075791578037795
239,1456704059145960,0.0009163533333594917,0.00033539055984527146,0.0010153481290122507
240,1456704059168082,0.000724590696884783,0.0002765752483632739,0.001056830826336456
241,1456704059184192,0.0006684502869881355,0.00024388676086098938,0.001024902762435568
242,1456704059206194,0.000762067549526003,0.00023954498771507323,0.0009388366040994
243,1456704059228448,0.0009723134999488734,0.00025709394372195124,0.0008385136066096708
244,1456704059244035,0.001236411522955583,0.0002862986088624495,0.0007688493974659941
245,1456704059266038,0.0014888725693197585,0.0003190466129467974,0.0007613331959038114
246,1456704059289304,0.0016849400654415678,0.0003529984168377656,0.0008221656834928791
247,1456704059304306,0.0018108192062047908,0.00039113339197955894,0.0009330906739054606
248,1456704059326060,0.001878446025411577,0.00043814288341438205,0.0010632997742849243
249,1456704059348370,0.0019096864946935095,0.0004966913513060273,0.0011840530429069998
250,1456704059363371,0.0019189938758788062,0.0005661910307639723,0.0012767786761524102
251,1456704059386424,0.0019042250165327355,0.0006442817474258444,0.001331241365412091
252,1456704059408370,0.001851386830869269,0.0007290416324273933,0.0013387004839257866
253,1456704059424304,0.001749916201381558,0.0008200009513026276,0.0012888200536159647
254,1456704059445357,0.001605903414677686,0.0009174881008712605,0.001174666601880978
255,1456704059468357,0.0014411860961342485,0.0010205539310033465,0.0010017584474736687
256,1456704059483358,0.0012787596562190073,0.0011235964271985393,0.0007932158134218025
257,1456704059505359,0.001127852612203415,0.0012128012028244353,0.0005865477285402685
258,1456704059530156,0.0009818640838126455,0.0012657235359145964,0.0004236744709043293
259,1456704059543163,0.000829867995040796,0.0012574239360536813,0.0003389096479120822
260,1456704059565165,0.0006708887267304417,0.0011721959608329332,0.00034911930083493997
261,1456704059588335,0.0005198836051459871,0.0010142440771053192,0.00044853319064228563
262,1456704059603365,0.00040272197022141014,0.0008096600280659746,0.0006093078867208013
263,1456704059625693,0.00034492149559604764,0.0005975849799155354,0.0007877930989271516
264,1456704059649737,0.0003604857603181629,0.00041580595661798626,0.000935150080155385
265,1456704059663702,0.0004449670449180488,0.0002888669430340608,0.0010098411370601582
266,1456704059686006,0.0005744587733532907,0.0002235920846854711,0.0009889223239849202
267,1456704059709704,0.0007108458270155813,0.00021159979721794425,0.0008749429210433789
268,1456704059723995,0.0008125250461864934,0.0002352609508681497,0.0006957505028575878
269,1456704059745504,0.0008477853130005136,0.00027375644916501535,0.0004962840412195465
270,1456704059768505,0.00080561020249013,0.0003078106298802971,0.0003244910173785554
271,1456704059789797,0.0006985614590937696,0.000323162428921386,0.00021631228129058113
272,1456704059805507,0.000556348225245314,0.0003129164366371371,0.00018534006499399267
273,1456704059828801,0.00041413271853082745,0.00027826824764041265,0.0002207477966955811
274,1456704059850099,0.0003019070744307776,0.0002270491974054045,0.00029358007974348644
275,1456704059866100,0.0002388812619422463,0.0001704731206011722,0.0003682458302904019
276,1456704059890101,0.0002325724966162271,0.00011942787412715401,0.0004144823933663293
277,1456704059912101,0.00027981106277614516,8.166428464777795e-05,0.000415688134858312
278,1456704059926114,0.00036752382105297916,6.049709381123514e-05,0.0003716613752146512
279,1456704059949124,0.0004736187998396238,5.493448177817821e-05,0.0002960073759895555
280,1456704059969126,0.0005699492906053727,6.081632277704399e-05,0.00020989755553450632
281,1456704059985126,0.0006285199866091032,7.244776725470976e-05,0.00013451566274880607
282,1456704060009138,0.0006295699658322813,8.426456009857672e-05,8.458888092547459e-05
283,1456704060029648,0.0005681143222008525,9.219375478727378e-05,6.484561772990193e-05
284,1456704060045158,0.00045559018239576984,9.444963525890653e-05,7.014052188602345e-05
285,1456704060069258,0.000315594762647266,9.151497664875658e-05,8.870022638737449e-05
286,1456704060090260,0.0001759390354600324,8.521455890166769e-05,0.00010694961134489335
287,1456704060106291,6.111332874669139e-05,7.723459450125947e-05,0.00011405916216307688
288,1456704060129118,-1.1611991397846144e-05,6.792592663350502e-05,0.0001048163929527174
289,1456704060149575,-3.199789469545793e-05,5.629844739804795e-05,8.038146784521034e-05
290,1456704060165574,5.436336560956449e-06,4.158289504358838e-05,4.7365262554063504e-05
291,1456704060188575,0.0001031261098031453,2.580663689913425e-05,1.6008707312864342e-05
292,1456704060211576,0.0002600427136198585,1.593401506095427e-05,-1.9778771679432788e-06
293,1456704060225906,0.0004692517574741341,2.3803079122823387e-05,4.1889449970626935e-06
294,1456704060248379,0.0007147408559914405,6.278849854755535e-05,4.1570398183903395e-05
295,1456704060272382,0.0009692207251582638,0.00014176702901741076,0.00011040985684832007
296,1456704060285380,0.0011948153215812986,0.0002588272500031354,0.00020167954451937587
297,1456704060308381,0.001348719502103851,0.0003981890963500497,0.00029711675384984555
298,1456704060331687,0.0013948554779766008,0.0005330547562925743,0.0003735190741587983
299,1456704060345980,0.001319236289873497,0.0006343170594069547,0.00041121768103282
300,1456704060369211,0.0011425033730952082,0.0006813208985426928,0.0004036327142280304
301,1456704060392252,0.0009215782335403168,0.0006688640985959024,0.00036282671910164906
302,1456704060406249,0.0007361242844164785,0.0006066348171159361,0.00031711244146525767
303,1456704060428755,0.0006630111013271258,0.0005123693270152574,0.0003008881346563448
304,1456704060451941,0.0007485413478027358,0.0004039582656538055,0.0003413050733756491
305,1456704060466205,0.00099002816000433,0.00029520512116299564,0.0004480479978711038
306,1456704060489206,0.0013347996199010845,0.0001961086755795623,0.0006104867076357562
307,1456704060512207,0.0016976195002228213,0.00011528741067461176,0.0008024875283483353
308,1456704060526303,0.001989788186308402,6.170880177609224e-05,0.0009918586572907253
309,1456704060548927,0.0021485254913084263,4.4441788764421064e-05,0.0011501777739461824
310,1456704060571895,0.002156064881172504,7.08576489637302e-05,0.0012595530546329562
311,1456704060586159,0.0020427996335748975,0.00014451320583586049,0.0013147712976437464
312,1456704060609162,0.0018741889558372264,0.0002639215231416664,0.0013211367965391822
313,1456704060632222,0.0017254333813848577,0.0004228884303924808,0.0012895447111056738
314,1456704060645846,0.001652090308382038,0.00061210990397504,0.0012311903526851069
315,1456704060668870,0.00166824039096622,0.000820789893234836,0.001154546077447351
316,1456704060692115,0.0017427440471899417,0.0010374364111116492,0.0010657187627966937
317,1456704060712849,0.0018158466275035082,0.0012505964038809437,0.0009704042570740554
318,1456704060729145,0.0018270260983086456,0.0014504094425443169,0.0008743745833746248
319,1456704060760031,0.0017395765500461007,0.0016293347102538328,0.000781660823558479
320,1456704060773032,0.0015520638141255751,0.0017791553731344605,0.0006928590316077405
321,1456704060789253,0.0012957626907152615,0.001885340280567451,0.0006063954638819606
322,1456704060812253,0.0010225252930653895,0.0019254435896170023,0.0005226585945585497
323,1456704060833015,0.0007878714407625397,0.001877272436325156,0.0004477185417795712
324,1456704060848969,0.0006334832608607173,0.0017336425110926613,0.00039295120159276554
325,1456704060871970,0.0005741400664886602,0.0015124962985316184,0.0003695999373397325
326,1456704060893272,0.0005943125191131672,0.0012530309322084533,0.00038102883343856924
327,1456704060908972,0.0006562996479074107,0.0009991802670431867,0.00041754995665801867
328,1456704060931999,0.0007161785839917651,0.0007815532791226535,0.0004577918144453858
329,1456704060953008,0.0007403836981521318,0.0006093790379070781,0.000476922839262563
330,1456704060969007,0.0007166644074713357,0.0004756476163359633,0.00045772856447157193
331,1456704060991017,0.000656401684413983,0.00036926149007243756,0.0003985104334894933
332,1456704061013009,0.0005882276895788988,0.00028485503981294687,0.0003136523035858198
333,1456704061035021,0.000545497442675519,0.00022480207267660415,0.00022708332172184051
334,1456704061051042,0.000552567235507333,0.0001942992010854313,0.000162455735294465
335,1456704061073050,0.0006154556159100352,0.00019448391324368644,0.00013457626773221869
336,1456704061089043,0.0007202153061759162,0.00021853497911044188,0.00014508850876823092
337,1456704061111044,0.0008386742738283979,0.000252812658057245,0.0001832991749387315
338,1456704061133198,0.0009384044501965897,0.00028177712205437484,0.00023124817888982993
339,1456704061148266,0.0009928335999305519,0.0002936084440061365,0.0002708135862655439
340,1456704061170267,0.0009881580558466089,0.0002836869141067811,0.0002901168966242533
341,1456704061195268,0.0009255780483522097,0.0002547173406165,0.0002869986417877074
342,1456704061208270,0.0008193483563424364,0.00021412907262550416,0.00026857874041385745
343,1456704061230652,0.0006920821798611688,0.00017047667559956582,0.0002473321257417203
344,1456704061254160,0.0005686222317269671,0.000130577331261449,0.00023534908308970348
345,1456704061268161,0.0004697590705757066,9.836801062363144e-05,0.00023923333564413777
346,1456704061291313,0.0004076682716310219,7.548979889826427e-05,0.0002578666854356933
347,1456704061314164,0.00038497859591410665,6.284888082152674e-05,0.0002837632545290172
348,1456704061328958,0.0003977384459913305,6.212462846002412e-05,0.00030680419391416043
349,1456704061350697,0.0004401839883736457,7.642877827000722e-05,0.00031821093680249216
350,1456704061374697,0.0005082371408510805,0.00010986422797340486,0.0003131529170628973
351,1456704061388725,0.000599831634325964,0.0001662334300865196,0.00029157626329612713
352,1456704061410700,0.0007123778691672864,0.00024731943185853767,0.0002576918279695307
353,1456704061441808,0.0008394196113014501,0.00035109514991609185,0.0002187752363750693
354,1456704061450781,0.0009690233790389839,0.00047028471337955477,0.00018376123250397644
355,1456704061470782,0.001085667801295559,0.0005920041024545939,0.00016188136369340786
356,1456704061494783,0.0011757321738689135,0.0006993272022219902,0.00016145408096234428
357,1456704061508784,0.0012346485679480207,0.0007751128802123852,0.00018890584601988428
358,1456704061531077,0.0012721574952397805,0.000807364900771931,0.00024810859398140446
359,1456704061555372,0.0013118957806142813,0.0007943468737808672,0.00033997932830505325
360,1456704061568374,0.0013834487477383433,0.0007472679741532665,0.000461939661200952
361,1456704061590374,0.0015086738265643787,0.0006889005661116966,0.0006068284716120589
362,1456704061614376,0.0016879710852541131,0.0006478928009459166,0.0007619099569398044
363,1456704061635174,0.0018939524934203365,0.0006503372556668023,0.0009099611335977307
364,1456704061650993,0.002077704856304999,0.000711431480818207,0.0010338788230059078
365,1456704061674995,0.0021867488639190015,0.0008298763916474495,0.0011232575061296114
366,1456704061695182,0.002187156693717832,0.0009862802357380345,0.0011786839070802436
367,1456704061711228,0.002079198946823525,0.0011458210089642011,0.0012101142421327737
368,1456704061734984,0.0018981008434260154,0.001265541389219369,0.0012294282274038892
369,1456704061754730,0.0016982057486595622,0.0013065870443377209,0.0012412231835418493
370,1456704061771019,0.0015276825381822317,0.001249574875401736,0.0012375576832035268
371,1456704061794993,0.0014074860410925032,0.001107403004199999,0.0012006355053841326
372,1456704061814946,0.0013271414133213932,0.0009276876023950495,0.0011128355350926557
373,1456704061830958,0.0012593772996149321,0.0007803404794823072,0.0009686529744743852
374,1456704061854968,0.001182311404440597,0.0007334998701820434,0.0007816724527281787
375,1456704061875254,0.001093137511584579,0.0008272659162572194,0.0005828442752430453
376,1456704061890970,0.001005538887894601,0.0010555293418896478,0.0004114073099852041
377,1456704061913972,0.000936209522180676,0.0013632215342376213,0.00030299932512742485
378,1456704061936268,0.0008922986347157163,0.0016620031362386406,0.000279321809309013
379,1456704061950277,0.0008681427301551575,0.00186097678058661,0.00034173553065232164
380,1456704061973277,0.0008515904166839027,0.0019006624734326225,0.000469746069799348
381,1456704061995320,0.0008338794551310929,0.0017739461630483701,0.0006250477205671158
382,1456704062010279,0.0008156715822278281,0.0015233371453621458,0.0007612552257825624
383,1456704062033806,0.0008054164279945657,0.001217621161649893,0.0008375317008022714
384,1456704062055348,0.0008117347218974167,0.0009224349978605415,0.0008317629139320305
385,1456704062070314,0.0008351243631351213,0.0006798309876043396,0.000747876310983011
386,1456704062093350,0.0008643009564559031,0.0005031342125545786,0.000613797233233944
387,1456704062116316,0.0008796927425020066,0.00038388621748093767,0.0004705892662085155
388,1456704062130841,0.0008623610339211151,0.00030362025400759496,0.00035726047648715033
389,1456704062153369,0.000802940863191755,0.0002443935785405888,0.00029749166657401673
390,1456704062176334,0.0007052020908275691,0.0001950154269278082,0.0002933262367611785
391,1456704062190335,0.0005830879221917177,0.00015243458128225834,0.0003273955107965557
392,1456704062213338,0.00045452293626076565,0.00011940775031552052,0.0003715786315170427
393,1456704062237096,0.0003360080723859799,0.00010050652072975972,0.0003980123871670692
394,1456704062250351,0.0002397558970184992,9.857369973345238e-05,0.00038847090543331055
395,1456704062279353,0.00017286025479626432,0.00011289065989081922,0.00033947564538769196
396,1456704062296354,0.0001372908787997247,0.00013913671207483612,0.0002621452426186395
397,1456704062311354,0.000130101899292354,0.00017052316449711968,0.0001773402167097726
398,1456704062333900,0.00014407928798809613,0.00019956321131362552,0.00010795976170460914
399,1456704062357119,0.00016918878530627348,0.00022022416417333783,7.105745134206026e-05
400,1456704062371085,0.0001946748716716772,0.00022998253161819393,7.242507861726476e-05
401,1456704062393883,0.0002113136185191122,0.00023077678384923942,0.00010536832890498101
402,1456704062423157,0.0002135525986635724,0.00022798189955797987,0.00015389432825759321
403,1456704062431162,0.00020154345264996627,0.00022763562407287596,0.00019896763561419364
404,1456704062453175,0.00018264246900548398,0.00023334575566078976,0.00022535964681618198
405,1456704062476175,0.00017111642926561017,0.0002445441693550895,0.00022639984466071083
406,1456704062491177,0.00018485516551595342,0.0002569223291382081,0.0002049184284590442
407,1456704062514178,0.00023945849931453382,0.00026471156523033757,0.00017046393529449784
408,1456704062537158,0.000341975294271773,0.000263675293970972,0.00013450657221812125
409,1456704062559164,0.00048720824960600274,0.0002535096900824906,0.00010597840036556795
410,1456704062573083,0.0006584855634099016,0.00023869407981309273,8.899979466882142e-05
411,1456704062596088,0.0008329114387570361,0.00022745243443180092,8.336798435055058e-05
412,1456704062618161,0.0009892157831648627,0.0002291525161199027,8.696133153662362e-05
413,1456704062634069,0.0011151074617869541,0.00025102093587070116,9.836671516982635e-05
414,1456704062656794,0.0012110656037068984,0.00029535523010455723,0.0001182615998106927
415,1456704062678072,0.0012887900995907785,0.00035828817394852795,0.00014913127113806336
416,1456704062693951,0.0013644061427018103,0.00043052814770126415,0.00019386532624733106
417,1456704062716798,0.0014485665285336059,0.0004996290500902961,0.00025405037750896405
418,1456704062737842,0.0015377278138257284,0.000552799755101996,0.0003286554243100394
419,1456704062753313,0.0016118047238530113,0.0005794996057829619,0.00041376408756177066
420,1456704062776315,0.0016412063613161542,0.0005738673289581556,0.0005038716816208638
421,1456704062797315,0.0016015305885063499,0.000537473458493088,0.0005946176461346306
422,1456704062813316,0.0014900150175951522,0.00048232423670778874,0.0006857746089367865
423,1456704062836580,0.0013360974817667388,0.00043294175672174863,0.0007824834447646478
424,1456704062858126,0.00119926593312406,0.00042556484873089006,0.0008928093934786923
425,1456704062874088,0.0011514358991842456,0.0005023552174158178,0.0010212030275764648
426,1456704062896088,0.001248541480927221,0.000699315399660509,0.0011602630922638551
427,1456704062917089,0.0015036424237128052,0.0010295194745106714,0.0012859434705364864
428,1456704062934134,0.0018760527484871158,0.0014681913560911871,0.0013614836745093424
429,1456704062962381,0.0022842570502094443,0.001949599318618011,0.0013510321668983142
430,1456704062977303,0.002636849896643214,0.0023824486423780437,0.0012369556806351887
431,1456704062993303,0.0028640084234221735,0.002679610749074296,0.0010307919330646907
432,1456704063016304,0.0029324250058349456,0.0027870789985935352,0.0007711231744253736
433,1456704063038031,0.0028406419456357764,0.002696746696682267,0.0005101037668858214
434,1456704063053540,0.0026066390902738427,0.0024399156799801915,0.0002967347457547148
435,1456704063076539,0.002260575124635837,0.0020714814056692517,0.00016460832599190885
436,1456704063099541,0.0018438833794653033,0.0016556689615610369,0.00012691062120716607
437,1456704063113543,0.0014069086282505628,0.0012553551988776497,0.00017710408458310032
438,1456704063136968,0.0010003574400212515,0.0009215676633314208,0.0002924715470317803
439,1456704063159967,0.0006641846605249418,0.0006831662861162938,0.0004389178087064131
440,1456704063174004,0.00042040597933126474,0.0005416558135216758,0.0005772455559136402
441,1456704063196755,0.0002726078839672642,0.00047506431412586885,0.0006715823690533225
442,1456704063219756,0.00021037861819021833,0.000449358294164556,0.0006988003764361253
443,1456704063234131,0.00021518226047227858,0.00043181354362423603,0.000655232884927915
444,1456704063256716,0.00026513059024261133,0.00040081236086718337,0.0005568192480106188
445,1456704063279718,0.0003380662986453234,0.00034932991312554117,0.00043207413021348015
446,1456704063293969,0.0004136908412982346,0.00028254368292021854,0.00031146945730603276
447,1456704063316721,0.000475421758697703,0.00021204326011523805,0.0002183578976769323
448,1456704063339513,0.0005119419615965919,0.00014960937725882865,0.00016452886661255295
449,1456704063353521,0.0005179706635301773,0.00010282553946756897,0.00015025680801790213
450,1456704063382527,0.0004939179961448477,7.351111618898829e-05,0.00016703106902224232
451,1456704063399523,0.00044459341295502474,5.869831382378619e-05,0.00020138029710938972
452,1456704063413524,0.0003775686381465503,5.305603511224952e-05,0.00023883353544680558
453,1456704063437010,0.0003017123893977589,5.148232303598248e-05,0.0002672221048060506
454,1456704063459978,0.00022599105313121634,5.093651098017283e-05,0.00027865762712903915
455,1456704063473980,0.00015841534683938064,5.1141352696664345e-05,0.000270072067419505
456,1456704063496981,0.00010511770535821628,5.422259323438798e-05,0.00024283131400108728
457,1456704063519982,6.969131893218958e-05,6.359159006354824e-05,0.00020208677525198742
458,1456704063535008,5.299162750224902e-05,8.256473590923954e-05,0.00015615405754818536
459,1456704063556518,5.360337509530797e-05,0.00011336987775157084,0.00011567218086222794
460,1456704063579520,6.901813501333002e-05,0.00015707880157236274,9.201447928214094e-05
461,1456704063600521,9.722600294196104e-05,0.00021445810806819336,9.465626209222913e-05
462,1456704063616522,0.0001380842907518128,0.0002869761505512477,0.00012796737363636264
463,1456704063639822,0.00019368372022063752,0.00037679624419945313,0.00018883202669255572
464,1456704063661832,0.0002671552987532372,0.0004850063498379638,0.0002669090142367632
465,1456704063676833,0.0003601857525568279,0.0006085699651399651,0.00034859106103316375
466,1456704063700239,0.0004708312803817313,0.0007378442372721253,0.0004238276562572764
467,1456704063721138,0.0005939301315232029,0.0008569306262381748,0.0004928835480427618
468,1456704063736862,0.000724986104791192,0.0009479367829550099,0.0005691047985771368
469,1456704063760100,0.0008650062962110537,0.0009978299393965263,0.0006747257643457391
470,1456704063781003,0.0010213751234832123,0.0010043536785180917,0.0008298892507062206
471,1456704063796872,0.001201660040904391,0.0009772156410566188,0.0010394274308396997
472,1456704063818873,0.0014028633341533839,0.0009333521368622418,0.001284787625440766
473,1456704063847985,0.0016036858017844885,0.0008892263515566704,0.0015268694961025106
474,1456704063857263,0.0017675110343478764,0.0008554374463982402,0.0017198715239925195
475,1456704063878986,0.0018581419976926967,0.0008369334520086664,0.00183037220578439
476,1456704063901229,0.0018615101079666487,0.0008373565893788215,0.0018531522488604874
477,1456704063916988,0.0018000317594257464,0.0008629178055486998,0.0018161061761595234
478,1456704063938785,0.001727881879948929,0.0009223698170089105,0.0017700615872398003
479,1456704063960576,0.001706395712419127,0.0010233190877723178,0.001765215581733896
480,1456704063976579,0.0017724804735906282,0.0011673844905820087,0.0018236050612399626
481,1456704063998580,0.001918986659632629,0.0013463192295089374,0.0019226066585212463
482,1456704064021591,0.0020987372513736765,0.0015404070695398519,0.002001480695590075
483,1456704064036880,0.0022479298291488074,0.0017204891659256545,0.0019897775944371964
484,1456704064058390,0.002312615522806397,0.001853968049259598,0.0018418542005432452
485,1456704064081392,0.0022637036743759146,0.0019125205470555328,0.0015583068285091246
486,1456704064096393,0.00209807573029041,0.0018783535571279591,0.0011851485432550436
487,1456704064118394,0.0018331235527110992,0.0017481613800660193,0.0007950444927486006
488,1456704064141256,0.001501431575887976,0.001535600808885937,0.0004617588800254836
489,1456704064156246,0.0011458132928648481,0.0012712351155504443,0.00023799749219874505
490,1456704064179248,0.0008118951943543818,0.0009970201161597055,0.00014262337742063875
491,1456704064201249,0.0005384693301203907,0.0007548870516048768,0.00015928784761070724
492,1456704064216250,0.00034936525281967543,0.0005740008943866316,0.00024542046091529735
493,1456704064239184,0.000250150725159427,0.0004631767078431627,0.000347921368867304
494,1456704064261840,0.00023004845167345458,0.00041164068047755024,0.0004201751475121359
495,1456704064276841,0.0002672208596060464,0.00039639933372936237,0.0004349105863895618
496,1456704064298843,0.0003350077833155559,0.00039209766769006274,0.00038916766875631047
497,1456704064321843,0.0004073473213588474,0.0003796506314268279,0.0003006170192286888
498,1456704064336659,0.0004627747917276783,0.00035108073445036324,0.00019762904633389348
499,1456704064366677,0.000487272931808003,0.0003092558128111118,0.00010756577641259066
500,1456704064381679,0.0004762144261102364,0.00026317257571196545,4.7831068509489995e-05
501,1456704064396679,0.0004348308212551833,0.0002215333940813872,2.233778360087381e-05
502,1456704064418680,0.00037609558241373823,0.00018808475595266238,2.3438668920456486e-05
503,1456704064441863,0.00031569061167529265,0.0001608722559154416,3.739257199498638e-05
504,1456704064462829,0.00026564142453434155,0.0001350886989382097,5.069438442507186e-05
505,1456704064479088,0.00022968216608279686,0.00010717838832735037,5.493813028371306e-05
506,1456704064503102,0.0002029838383667952,7.754955760056012e-05,4.888553913323014e-05
507,1456704064523103,0.00017664663560164914,5.0588804247550275e-05,3.761618459725783e-05
508,1456704064538574,0.0001447793441425626,3.2464235757116824e-05,2.9597704682762102e-05
509,1456704064561204,0.00011056795557118647,2.8226490352371104e-05,3.294686588804758e-05
510,1456704064583206,8.8126701688183e-05,3.9644545605718213e-05,5.2085774079289986e-05
511,1456704064606085,9.883476120671742e-05,6.451242475965465e-05,8.570441749606623e-05
512,1456704064621161,0.00016332397778228268,9.741275737614191e-05,0.0001266213238443024
513,1456704064643204,0.000292188743831346,0.00013141843899578816,0.0001637548849407846
514,1456704064658204,0.0004791502988824131,0.00016005035196060933,0.00018586398692161483
515,1456704064681179,0.0006996884652897789,0.00017899043150050215,0.00018603204618071725
516,1456704064703194,0.0009163176206702279,0.0001873595885564609,0.00016536112005911664
517,1456704064718201,0.001089357552080056,0.0001884303555638248,0.00013442506636956759
518,1456704064734211,0.001190042784628908,0.00018938816557051164,0.00011177295857059931
519,1456704064754981,0.0012116708010321575,0.00019965571063159144,0.00011966694932922153
520,1456704064777983,0.0011744237686178954,0.00022780195848093137,0.00017777162115640308
521,1456704064793130,0.0011207521507235895,0.00027795362244991843,0.0002959581079947602
522,1456704064815130,0.0011010885847654414,0.0003472458764335881,0.0004683786479727101
523,1456704064838202,0.0011539603602223668,0.0004257926497668538,0.0006720380132178899
524,1456704064852513,0.001288685250961954,0.0004998910470014443,0.0008724684448307628
525,1456704064874219,0.0014796175715998039,0.0005576741878710623,0.0010357982757778108
526,1456704064897511,0.0016759330605286462,0.000594632176821794,0.0011420895385205285
527,1456704064920549,0.0018221695026232406,0.0006158075586669845,0.0011926226565800873
528,1456704064935008,0.0018784803722976934,0.0006331652558428606,0.0012061758293473313
529,1456704064957798,0.001830838994467037,0.0006595639027459936,0.001205624996427844
530,1456704064972528,0.0016890717926632758,0.0007026319681113575,0.0012026754920076992
531,1456704064994524,0.0014784481740638998,0.0007615926600556866,0.0011905599559524826
532,1456704065017748,0.0012324964831024131,0.0008282563788136886,0.0011497367021169947
533,1456704065031963,0.0009895128205499163,0.0008912018141989955,0.0010626440605281764
534,1456704065056043,0.0007886055007695328,0.0009405594676513862,0.0009273190339848046
535,1456704065078187,0.0006608216672555583,0.0009703918317385683,0.0007614353241157994
536,1456704065093189,0.0006174363373573677,0.00097716381591069,0.0005958124256656937
537,1456704065115144,0.000643179752579187,0.0009562360845843685,0.0004625021065317013
538,1456704065137873,0.0007008088440876838,0.0009009719345905785,0.0003834304275005348
539,1456704065152352,0.0007464490039086159,0.000807221706447618,0.0003635141712091469
540,1456704065175353,0.0007482258674868115,0.0006803517546404308,0.0003900991171763558
541,1456704065198742,0.0006984452681770858,0.0005383498958684048,0.0004385592020327744
542,1456704065212494,0.0006133103307983045,0.00040700853552866887,0.00048152882543553346
543,1456704065235160,0.0005215777350089867,0.00030944370085300693,0.0004977795249781282
544,1456704065258034,0.0004497133301524319,0.00025652051336965846,0.00047748498323443297
545,1456704065272706,0.0004118429690996885,0.00024393726004717363,0.00042287246003007726
546,1456704065294701,0.00040817660507945714,0.00025707922682459276,0.0003452560306172633
547,1456704065317963,0.00042975523969220053,0.0002799364359914701,0.00026029116994581144
548,1456704065332919,0.00046466187243944003,0.0003025148296506002,0.00018329502715460922
549,1456704065354909,0.0005021622883683942,0.000323002120661183,0.00012602986202847122
550,1456704065377908,0.0005342192904898033,0.0003446414911383592,9.544166691620202e-05
551,1456704065392915,0.0005556990576622352,0.0003701601024035969,9.377147890182023e-05
552,1456704065414877,0.0005644329732636721,0.0003973084320391787,0.00011901396714571407
553,1456704065438152,0.0005610956861396268,0.0004178954896768838,0.0001652595939846061
554,1456704065452393,0.0005483401678518452,0.00042069183250905995,0.00022334192942778856
555,1456704065476387,0.0005294986160561396,0.0003967192952187439,0.00028241797784101126
556,1456704065497389,0.0005081079411494466,0.0003444868533160665,0.00033242284657481966
557,1456704065521389,0.0004889018025878183,0.00027289238666603995,0.00036649073028337026
558,1456704065534984,0.00047923673484814367,0.00020045379637690378,0.0003822734345858616
559,1456704065557996,0.0004892161656812973,0.0001508068838310018,0.00038173267711291627
560,1456704065580997,0.0005297397734813874,0.00014574979485564919,0.00036979781911244676
561,1456704065595203,0.0006091218146106342,0.0001981764003422636,0.00035262927643475137
562,1456704065618172,0.0007296138368789772,0.00030744452711614504,0.00033604842931954414
563,1456704065640828,0.0008850992945254057,0.00045879341037888217,0.00032435965507028087
564,1456704065655169,0.0010608657671955133,0.0006268615200525275,0.0003196543451657506
565,1456704065678139,0.0012359205211501473,0.0007820347400652323,0.00032183965427654205
566,1456704065700799,0.001387729050626584,0.0008977353521672748,0.0003298823706535432
567,1456704065715071,0.0014984866857260188,0.0009567606195208682,0.0003446812576243775
568,1456704065737800,0.001561282576099378,0.0009552389963836102,0.0003730750744751235
569,1456704065761126,0.0015840821786397847,0.0009035951221698593,0.00043070339622743763
570,1456704065775124,0.0015894576579071975,0.0008246486009103373,0.0005400694370819665
571,1456704065797055,0.001608641339353743,0.0007490257460323912,0.0007215824222933852
572,1456704065820063,0.0016703648635386357,0.0007079067488257979,0.0009801777327277396
573,1456704065834886,0.0017880418157971852,0.0007240922517303127,0.0012948914219995764
574,1456704065858121,0.001951372192956834,0.0008042831073400489,0.0016189117263321734
575,1456704065881115,0.0021279005778703695,0.0009361211245544616,0.0018925404415264663
576,1456704065895120,0.002275409704855208,0.0010916143627811214,0.0020647827297368584
577,1456704065918159,0.002359287314574746,0.001235502585973097,0.0021145576120202235
578,1456704065941128,0.0023650915687368685,0.001335386496488253,0.002061352325773256
579,1456704065954142,0.002299418204925857,0.0013709114641140474,0.0019582812718676595
580,1456704065977143,0.0021801208098869264,0.0013404090607712893,0.001868055140183952
581,1456704066001158,0.002023907242037633,0.0012632614886984134,0.0018320029352045875
582,1456704066015139,0.0018405840189239136,0.0011756190013444874,0.001848581445191114
583,1456704066037931,0.0016377372224004026,0.0011186743990777644,0.0018747159626970357
584,1456704066061226,0.0014304556659029358,0.0011227528515344524,0.0018500652098511455
585,1456704066075227,0.0012453379708966053,0.0011936225873073814,0.0017295460154758042
586,1456704066098229,0.001112831924048398,0.001307102445899239,0.0015052478263066526
587,1456704066120562,0.0010529001948098974,0.0014151775541097087,0.0012079629896711583
588,1456704066135067,0.0010645388616306684,0.001462753358176708,0.0008917472564334016
589,1456704066158152,0.001125103660229338,0.001409094795147366,0.0006121889978396297
590,1456704066180081,0.0011977983085076339,0.0012442833854577028,0.0004084415344878758
591,1456704066195152,0.0012427483122071537,0.000992712658470924,0.00029434300005661614
592,1456704066218153,0.0012281078298702363,0.0007026925453923045,0.0002591010225561081
593,1456704066240634,0.0011384424393127805,0.000428411472967763,0.0002750643910184946
594,1456704066254383,0.0009779639053849529,0.0002129914946316447,0.0003090025656407017
595,1456704066277390,0.0007678881717971247,7.881117474970829e-05,0.0003330321398013887
596,1456704066308652,0.0005395609351985173,2.651300495593294e-05,0.0003316396717950068
597,1456704066314385,0.00032616583064288564,4.028212428156648e-05,0.00030287770701582046
598,1456704066337604,0.00015562314533943173,9.56838811478471e-05,0.00025457432110638674
599,1456704066361110,4.643182784272072e-05,0.00016716672512235198,0.00019853850069949532
600,1456704066375112,6.8015814484735175e-06,0.00023377358209568185,0.0001457395726757537
601,1456704066398123,3.5760538106516516e-05,0.0002825809843735093,0.00010373397651141062
602,1456704066421147,0.00012428831376350084,0.00030971267127665624,7.601320554683928e-05
603,1456704066437163,0.00025570513129633454,0.00031881433546160224,6.253460818683668e-05
604,1456704066458176,0.0004063990287834073,0.0003172684740801147,6.0943036307383765e-05
605,1456704066480922,0.0005485318389212378,0.00031144652167094917,6.800019570353447e-05
606,1456704066495169,0.0006551211621383511,0.0003031805520857376,8.056409613060795e-05
607,1456704066518173,0.0007062186381253362,0.0002892977699194213,9.572486897316711e-05
608,1456704066540934,0.0006942524918605493,0.0002644649209235618,0.00011044945426506369
609,1456704066555143,0.0006270011652371114,0.00022582872357621985,0.00012159542488808026
610,1456704066578172,0.0005272472617590733,0.00017706897079227088,0.00012682472764528486
611,1456704066601136,0.00042857907044556876,0.00012978899054191627,0.00012602067081754113
612,1456704066614945,0.0003675081136331453,0.00010134730470139437,0.00012210741488351837
613,1456704066638038,0.00037338722905101186,0.00010976080181828209,0.00012033097817269494
614,1456704066660545,0.00045902751898864127,0.0001675758238743393,0.00012604644606126642
615,1456704066675258,0.0006153835755771805,0.0002770323534300793,0.00014218132954431253
616,1456704066697260,0.0008126757938843431,0.0004282206653638146,0.0001679612806843838
617,1456704066721260,0.001008319970569747,0.0006006502531896796,0.00019983533480490834
618,1456704066742865,0.0011598487728908657,0.0007674928214948733,0.00023427926239575305
619,1456704066757071,0.0012390726454735623,0.0009012508783150367,0.00027114626934136843
620,1456704066780067,0.001242400075714483,0.000979602222670949,0.0003158667966918665
621,1456704066803133,0.0011924047959050456,0.0009901351970497932,0.00037885771069878327
622,1456704066818094,0.0011285044761675264,0.0009325530854389688,0.0004711975147337463
623,1456704066839865,0.001089890499293507,0.0008175460556562406,0.0005976981825539196
624,1456704066863378,0.0010988469057405413,0.0006634102828256258,0.0007512104396709628
625,1456704066877639,0.0011532187251209307,0.0004930980640776468,0.0009126060964467699
626,1456704066899615,0.0012318199690658906,0.0003334480973997074,0.0010579694317285893
627,1456704066922599,0.0013093054434095447,0.0002153720113858553,0.0011702061008001777
628,1456704066938105,0.0013719111483175114,0.00017200398319638444,0.0012495466621285525
629,1456704066959962,0.001424987611624731,0.0002330745770989764,0.0013171591347158488
630,1456704066983999,0.0014878139988681249,0.00041651697730933943,0.0014079009993388947
631,1456704066997633,0.0015789782915571274,0.0007202032279516922,0.0015523950755874623
632,1456704067019967,0.0017022096680234296,0.001116998727159903,0.0017550659770175353
633,1456704067042977,0.0018427362787957996,0.001555738629566394,0.001980456292393732
634,1456704067057521,0.0019762380417189056,0.0019698097288565293,0.0021591543585884744
635,1456704067079485,0.0020815957391189474,0.002292637602471984,0.002214221649855376
636,1456704067102648,0.002145249838922515,0.0024747870176962277,0.0020954508673312246
637,1456704067117749,0.0021544418582539436,0.0024944250865929665,0.0018034281635932344
638,1456704067139743,0.00209038848503862,0.0023568739210574467,0.0013923547389484384
639,1456704067162715,0.0019344804628433029,0.0020873603283608536,0.0009526741050652002
640,1456704067178018,0.0016864985591198572,0.0017244614532053283,0.0005824595385396243
641,1456704067199980,0.0013786631228654013,0.0013167031129462314,0.0003580079815226673
642,1456704067222753,0.0010703147551571219,0.000918458609360556,0.00031230315498173886
643,1456704067237752,0.0008238383585434244,0.000581200925184993,0.00042721244846168625
644,1456704067259740,0.0006768100538580097,0.00034134391820903526,0.000641376716533388
645,1456704067282777,0.0006269280802036226,0.00021035611047282257,0.0008709132446247939
646,1456704067297742,0.0006370943502142215,0.00017276952921642966,0.0010358788619644528
647,1456704067319744,0.0006561107829749224,0.00019377384904472735,0.0010836561905585755
648,1456704067343029,0.000642763605450224,0.00023321034609386326,0.0010017558287411864
649,1456704067358055,0.0005812384017706639,0.00025981443334739885,0.0008165444963965128
650,1456704067379804,0.00048261048500578056,0.0002598816135896965,0.000579634673607492
651,1456704067403024,0.00037506186777366395,0.0002375627359236172,0.0003480498377855646
652,1456704067419052,0.00028956505427541634,0.00020788070851452396,0.0001660427181698376
653,1456704067439814,0.0002474504213731596,0.00018650644967379122,5.4854003265189063e-05
654,1456704067463021,0.0002537522555503333,0.0001812717594372791,1.2534332486920544e-05
655,1456704067478068,0.0002974507946160566,0.00018908114841670402,2.1391206093608212e-05
656,1456704067500111,0.00035743050270089355,0.00019900567229161806,5.8062585686258987e-05
657,1456704067523108,0.0004112556692105447,0.0001993141702895382,0.00010167767445446062
658,1456704067537817,0.00044303578037972334,0.00018441976744841936,0.00013804897896222467
659,1456704067559328,0.00044741649253360034,0.00015801391228340524,0.0001603327523451485
660,1456704067582334,0.0004289698998643151,0.0001309375948397648,0.00016772135685688642
661,1456704067597369,0.00039839594279654223,0.00011533683647497892,0.00016348203655460058
662,1456704067619527,0.00036765850077754143,0.00011853096914935105,0.00015289746321549538
663,1456704067642751,0.0003458467385742389,0.0001398056074468189,0.0001412940312497539
664,1456704067657047,0.00033701938167695906,0.00017149539390605664,0.00013258204296596928
665,1456704067679141,0.0003404439850170482,0.00020342338818616262,0.00012891486532265998
666,1456704067703047,0.0003523973060458138,0.0002281440101398051,0.0001314967836421643
667,1456704067718062,0.0003680479235157412,0.0002442626037462387,0.00014158443663636172
668,1456704067740277,0.00038262884766328183,0.0002563698179703311,0.00016050741050083124
669,1456704067762465,0.00039219203265578804,0.00027194076404981607,0.00018855200482071932
670,1456704067777548,0.00039449009380884535,0.0002968985469188659,0.000223786062758729
671,1456704067799506,0.00039012370010463424,0.00033200831879928234,0.00026198235528162537
672,1456704067830525,0.0003836464854777843,0.0003718248132653979,0.00029767608551785877
673,1456704067837516,0.0003837542180713594,0.00040671639494282324,0.0003254003061918392
674,1456704067859595,0.00040125663876675884,0.00042706149430743614,0.00034037926487214665
675,1456704067882447,0.0004443074425901316,0.00042772048983707653,0.00033896657363403454
676,1456704067897316,0.0005125165360363069,0.0004106700516857615,0.00031949276510327305
677,1456704067919600,0.0005934352419002002,0.00038438379635187666,0.0002834345383972761
678,1456704067942825,0.0006645673488815181,0.0003600999088353318,0.0002359607444044917
679,1456704067957669,0.0007012085708636886,0.00034686215741900033,0.00018505554623638183
680,1456704067979339,0.0006867399536412425,0.00034798760414388906,0.00013937680357381865
681,1456704068002346,0.0006200896510645565,0.0003607064141638775,0.00010579527483086598
682,1456704068025340,0.0005164439912364989,0.00037870510915253343,8.766863923241567e-05
683,1456704068039858,0.0004009826399178352,0.00039564616012819313,8.449750293838678e-05
684,1456704068062438,0.0002989171918099218,0.0004075146992393696,9.29527543194822e-05
685,1456704068085642,0.00022652557407447347,0.0004127533307496539,0.00010859861937492896
686,1456704068099588,0.00018692736765268941,0.0004106783639094278,0.00012734832775364977
687,1456704068122667,0.00017192858465543497,0.00039971510321502857,0.00014601627423668193
688,1456704068145626,0.00016864561892909855,0.0003770561611352056,0.0001620401102964473
689,1456704068159884,0.00016781693974257466,0.00034046602481288947,0.0001730571373479293
690,1456704068182876,0.0001701527721205606,0.0002916468232424217,0.00017714461835851737
691,1456704068205907,0.00018776980550732988,0.000239511391958287,0.00017399456286623538
692,1456704068219944,0.00023962006909619517,0.0002012658927856201,0.0001662895041400688
693,1456704068242517,0.000342409511406412,0.0001995724503392695,0.00015983421891310336
694,1456704068265529,0.0005006709383541558,0.0002554885676346452,0.00016145757357291537
695,1456704068279528,0.0007001754372131718,0.0003791920159414696,0.00017531701196152135
696,1456704068302811,0.0009076207462676254,0.0005624581088381725,0.00019978749508227584
697,1456704068325688,0.0010775928175642254,0.0007768676938751697,0.00022721890610493336
698,1456704068339993,0.0011658617668591775,0.00097948683091826,0.00024726406216533513
699,1456704068362441,0.0011456739338102525,0.0011246252958425503,0.0002522406658020518
700,1456704068385734,0.001020947070498868,0.0011778964427014912,0.00024154998323515999
701,1456704068399726,0.0008294627554843992,0.0011279022999078378,0.00022252907382178488
702,1456704068422446,0.0006326928260699924,0.0009913638408329685,0.00020714058341741111
703,1456704068445600,0.0004956506732907454,0.0008091907727298067,0.00020626876303092415
704,1456704068461301,0.0004654150437928877,0.0006338167009998983,0.00022455081139681585
705,1456704068483265,0.0005568814165442227,0.0005117343027183803,0.0002581474878580641
706,1456704068505600,0.0007496606487870426,0.0004680076865448568,0.00029625006878351097
707,1456704068519559,0.0009951212868231593,0.0004994292809090102,0.00032533725833621075
708,1456704068543084,0.0012303834695683638,0.0005791419058178316,0.0003340889167929717
709,1456704068565674,0.001395769758166356,0.0006698829330865339,0.00031696740034595054
710,1456704068579638,0.001451489053219462,0.0007389675384059447,0.00027550053289385543
711,1456704068603004,0.001388341880183794,0.0007681364932654462,0.00021735423392113732
712,1456704068625714,0.0012283655588537345,0.0007551237602701325,0.00015385368889370377
713,1456704068639702,0.001015256982213253,0.0007084901939453505,9.686248160081947e-05
714,1456704068662180,0.0007986999503001204,0.0006400548112186164,5.6021718655816854e-05
715,1456704068685440,0.000618758754382669,0.0005592840181623102,3.708436801199104e-05
716,1456704068700178,0.0004957941981301046,0.00047206243407402616,4.1421315744430285e-05
717,1456704068723178,0.00042876782616626245,0.00038340104052739227,6.622484264819312e-05
718,1456704068744480,0.00040133509212523735,0.00030111996486382515,0.00010499091061686998
719,1456704068759795,0.0003921281684539087,0.00023698236154861397,0.0001483939879972189
720,1456704068782655,0.00038453442997875135,0.00020369148814524524,0.00018602007176908678
721,1456704068804795,0.00037240114043247507,0.0002091820564571319,0.0002090565093469581
722,1456704068819796,0.0003603455748128324,0.00025159982497703403,0.00021312366259669167
723,1456704068842799,0.00035942424175624735,0.00031812419548889713,0.00019980374508562964
724,1456704068864797,0.0003802690000712646,0.00038869051001612516,0.00017578480439628521
725,1456704068879798,0.000426404675842951,0.0004430088886738238,0.00014978282711842632
726,1456704068903092,0.0004902867061678183,0.0004675375199215589,0.00012869251013970893
727,1456704068925064,0.0005536517869320583,0.0004592093540688718,0.0001148608109125428
728,1456704068939822,0.0005923631652734971,0.0004245720161111809,0.00010572660903002904
729,1456704068962839,0.0005844266261983694,0.0003753381904614036,9.581991984877956e-05
730,1456704068984840,0.0005184941248825334,0.00032280957560639124,7.998406537311832e-05
731,1456704069000010,0.0003994514712072706,0.00027371705191973596,5.616753466374004e-05
732,1456704069023018,0.000248383324827613,0.0002290126782039066,2.6438729346351854e-05
