,timestamp,emg1,emg2,emg3,emg4,emg5,emg6,emg7,emg8
0,1456704184804851,0.16887895190390279,0.8135680594259609,0.7686085540269952,0.7400692734066987,-0.022847289800961894,0.007851689759029706,-0.14728976151044335,0.018963651786062016
1,1456704184804851,0.52656547886593,1.6343202616644963,1.810320888472132,1.2662509257662702,0.10402922656534178,0.09901049311380375,0.08339581437539605,0.26217290538167815
2,1456704184805566,0.8784980638954379,2.40611873174971,2.8098489493156706,1.7480086916161113,0.23503844441129715,0.18972965308952938,0.3173883283769052,0.49944114063542155
3,1456704184805566,1.2212279205667418,3.1257609685018135,3.7590854952735007,2.1833780494072763,0.368966785014856,0.2795598373666061,0.5521263740742446,0.7284780851965262
4,1456704184806567,1.5514798609588671,3.7906957249516005,4.650838724389399,2.571018799996167,0.5045779332714079,0.3680746922956153,0.7851112275993187,0.9471491424180346
5,1456704184806567,1.8662179837552573,4.3990552055949435,5.47900914068572,2.9102436930497086,0.640637763256057,0.4548772649400914,1.0139553926979725,1.15352024898513
6,1456704184807567,2.1627045559451106,4.949676148297254,6.238732046189169,3.2010365388165285,0.775936741622446,0.5396052957842792,1.2364252243293274,1.3458965597123793
7,1456704184807567,2.4385505370555003,5.442109337747264,6.926481404256088,3.444059165066079,0.9093090964639171,0.6219352137750869,1.4504766808910203,1.5228538779592233
8,1456704184818887,2.6917563952392944,5.876618000055003,7.540132810342151,3.640646769278441,1.039648356644187,0.7015847363991202,1.6542838641443076,1.683262154025699
9,1456704184818887,2.920742093312929,6.254166022047759,8.078984868126657,3.792791115096849,1.165919214590389,0.7783140203882652,1.8462604891773418,1.8263006858762072
10,1456704184826568,3.124365421545246,6.576396880233761,8.543740096607484,3.903110927315649,1.287166007048644,0.8519253252047346,2.025074650905573,1.9514648584345269
11,1456704184826568,3.3019281765212307,6.845603615212778,8.936448411910744,3.9748089447399884,1.4025184176914922,0.922261193650854,2.1896572366022165,2.0585643759756
12,1456704184832569,3.4531700591814922,7.0646893904526245,9.260417380673452,4.0116153808884105,1.5111952261976107,0.9892012857793712,2.3392041829907018,2.1477130606762
13,1456704184832569,3.5782507318305052,7.237117582318694,9.520093544145103,4.017717965254949,1.6125069920816035,1.0526582098650308,2.4731725986821353,2.219310527630627
14,1456704184847571,3.6777212228065794,7.366850408864978,9.720918811306689,3.997679277284297,1.7058584685213658,1.1125728609486372,2.591270694718159,2.274016446880888
15,1456704184847571,3.7524865243505947,7.4582758199611225,9.869165891324851,3.956342602521979,1.7907513514258182,1.1689097915792763,2.6934416611459846,2.312718579174443
16,1456704184858256,3.8037615764839505,7.516123331771089,9.971757099954594,3.8987278849130274,1.8667877130969697,1.2216530031832875,2.779842177319255,2.336496190971735
17,1456704184858256,3.8330229297259324,7.545370446351695,10.036071491354294,3.829919691464164,1.9336741487713425,1.2708023571686968,2.85081696233419,2.3465807373371863
18,1456704184862594,3.841958351768238,7.55114226323685,10.069745897202342,3.75494971793639,1.9912263271625348,1.316370660539078,2.9068712915311012,2.3443158151681636
19,1456704184862594,3.8324164739808304,7.538607590109146,10.080475608663255,3.6786771145622263,2.0393733793638464,1.3583814124458429,2.9486434756998174,2.3311182985294
20,1456704184878611,3.8063582825382487,7.512874757130322,10.07581972799974,3.6056704438068805,2.0781614299446827,1.3968671586035175,2.9768789447042496,2.3084422731779717
21,1456704184878611,3.76581200128541,7.478889433154557,10.063014958937709,3.5400953326220503,2.1077555230212184,1.4318683196842115,2.9924069761032803,2.2777469761131677
22,1456704184886606,3.7128327523797693,7.441335785353382,10.04880068331134,3.4856119763239093,2.12843917597219,1.463432237746483,2.9961204687970713,2.2404695336785823
23,1456704184886606,3.649468152824727,7.404542054509255,10.039258303179661,3.445286554993797,2.1406108630254983,1.4916121205880575,2.9889586912231967,2.1980029224904047
24,1456704184916606,3.577730560102649,7.372392138825001,10.039668953182565,3.421520215005657,2.1447770196735534,1.5164656585937308,2.971892755030753,2.1516792182992144
25,1456704184916606,3.4995761048593583,7.348245683159992,10.054394942599673,3.4159985575573866,2.1415416914895946,1.5380533257324849,2.9459135866038517,2.1027578193188465
26,1456704184923612,3.416890131924969,7.334869929526474,10.0867906500186,3.4296636736650954,2.1315935450976586,1.5564366336210835,2.9120221669420974,2.0524179792961568
27,1456704184923612,3.3314782760780024,7.334386846496459,10.139147689515466,3.46270977940322,2.1156913488956617,1.5716767703560228,2.871221671084073,2.0017547691538433
28,1456704184924606,3.245062069699769,7.348238780736426,10.212677397407106,3.514602532204038,2.09464907863714,1.5838340759029101,2.824510937015799,1.951777569921857
29,1456704184924606,3.159277689735202,7.37717517625705,10.307531673867404,3.5841212385406043,2.0693215590119993,1.5929686811047212,2.7728785495485684,1.9034103369333446
30,1456704184925608,3.075676297014954,7.421261808378851,10.422861247118837,3.66942242981729,2.0405911504866063,1.5991424036934214,2.7172967680243887,1.857493061966331
31,1456704184925608,2.9957245705358764,7.479912494723732,10.556908445900506,3.768122615307105,2.009355547585107,1.6024217325630696,2.6587145340213323,1.8147840271480893
32,1456704184938613,2.9208045150069877,7.55194166773628,10.707129564989787,3.8773972923323927,1.9765163619726223,1.6028815308456161,2.5980489046608475,1.7759625571431985
33,1456704184938613,2.8522121420163904,7.6356350347837925,10.870340220969975,3.9940924689969757,1.9429678962710113,1.6006089925270268,2.5361746005413246,1.7416320064142081
34,1456704184945609,2.79115485988719,7.728835065258805,11.04287607738699,4.114844197676842,1.909585425349609,1.5957073837974707,2.4739119874374245,1.7123226914060206
35,1456704184945609,2.738747359988298,7.829037992226043,11.22076095837408,4.236201230249086,1.8772124341736818,1.5882991624900862,2.412014504141142,1.6884944686404442
36,1456704184952608,2.69600574970782,7.933499036726051,11.3998744609185,4.35474607300498,1.8466466209234425,1.578528183618877,2.3511569401448247,1.670538687951982
37,1456704184952608,2.663839846999229,8.03934250048825,11.57611168553649,4.4672103191715005,1.818624955766906,1.5665608489192695,2.291925903650452,1.6587792826961283
38,1456704184967615,2.6430438571293537,8.143673162181727,11.745528739725657,4.57058089307361,1.7938085150598544,1.5525862168129623,2.2348134463929186,1.653472826070997
39,1456704184967615,2.634285927921759,8.243684986568743,11.904469129961802,4.662194533614657,1.7727680792668354,1.5368152309401182,2.180214336857206,1.6548075371961941
40,1456704184975620,2.638097207953038,8.336762629378013,12.049667664225225,4.7398183120483655,1.7559715667005833,1.5194793079013762,2.1284270079270535,1.6629014046358137
41,1456704184975620,2.6548610121597678,8.42057097348204,12.178329870626406,4.801714183385393,1.7437742789474304,1.5008285050626715,2.0796578002091928,1.6777997024918074
42,1456704184982620,2.6848025919724403,8.493128426058256,12.288186553799333,4.84668575914602,1.736412705538124,1.481129395094396,2.0340278362917603,1.699472205907595
43,1456704184982620,2.727979841340988,8.552861097892842,12.377525129251483,4.874105988532744,1.7340023591863483,1.4606626862187508,1.991581719891079,1.7278104381042216
44,1456704184998626,2.784275074418799,8.598636771526738,12.4452010449202,4.88392526252426,1.7365398219105699,1.4397205712996983,1.9522972235357805,1.7626252961760787
45,1456704184998626,2.8533879015514576,8.629778930710918,12.490632899763783,4.876660309789168,1.7439088531396636,1.41860373188592,1.9160952045086275,1.8036453542949342
46,1456704185005623,2.934829340170101,8.646061858520287,12.513783845096894,4.8533648979427015,1.7558900681143237,1.3976178720136647,1.88284922083086,1.8505160431547947
47,1456704185005623,3.0279176142652076,8.64768838229282,12.515130780890926,4.815583891341514,1.7721734270719631,1.3770696581709396,1.8523946634168273,1.9027998241333555
48,1456704185012623,3.1317764644513826,8.635252483296755,12.495622935532378,4.765292871808248,1.7923726156865156,1.35726199038978,1.8245374875661842,1.9599774662625584
49,1456704185012623,3.2453370473123524,8.60968941498561,12.456632464720656,4.704826225955272,1.8160402813784549,1.3384885599567575,1.7990626644833496,2.021450591578651
50,1456704185027751,3.3673445340817696,8.57221602853348,12.399900383367255,4.63679700792794,1.8426830000272645,1.3210276360099094,1.775742316791911,2.086545717135074
51,1456704185027751,3.4963702508515997,8.524263886447493,12.327480478692832,4.564011861049681,1.8717749144802738,1.3051350318428465,1.7543433142333504,2.154520006190856
52,1456704185035623,3.6308296701910057,8.467407670651781,12.241682280443078,4.489384039042198,1.9027693368211327,1.2910363099784128,1.7346340371956546,2.224568832944243
53,1456704185035623,3.769005978407126,8.403291525497007,12.145012958914197,4.4158473592057454,1.9351081306038374,1.2789184642265308,1.7163901202778147,2.2958351317267884
54,1456704185042624,3.9090785719880623,8.333556427206597,12.040117898064045,4.346273787974247,1.9682291056125338,1.2689214472251404,1.6993992082263707,2.3674203994596463
55,1456704185042624,4.049155746283353,8.25977219469172,11.929720200634458,4.283397218887258,2.001571830789188,1.261129935620541,1.6834649484597068,2.4383971571349528
56,1456704185058631,4.187310801868923,8.183377854585888,11.816559684098962,4.229745779638134,2.0345823221092827,1.2555657158365148,1.6684104724008586,2.5078226716627032
57,1456704185058631,4.321620540915164,8.105633569891715,11.703331838442292,4.1875846142482525,2.0667171377265627,1.25218112623683,1.6540814900967682,2.5747538388087388
58,1456704185065632,4.450204667782292,8.02758645020382,11.592627259373442,4.158870432275098,2.097447497244687,1.2508541060604685,1.6403489765960722,2.6382633093704557
59,1456704185065632,4.571264287233367,7.95005142703883,11.486872653738288,4.1452182319590705,2.1262640429120205,1.251385498251304,1.6271113528690728,2.6974570721174187
60,1456704185072636,4.683117898094154,7.8736069688525845,11.3882752821408,4.147879717143451,2.1526827424381376,1.2534992544182222,1.6142960339824717,2.7514936503308793
61,1456704185072636,4.784233993367148,7.798603821960437,11.298772819199208,4.167732288913125,2.1762522250830023,1.25684606605689,1.6018601959812384,2.799604806280052
62,1456704185087637,4.8732600669202055,7.7251835759020295,11.21998984455922,4.205277154986508,2.196562597781586,1.2610107198567477,1.589790597658506,2.8411172755322482
63,1456704185087637,4.94904796970391,7.653303125247952,11.153201354036264,4.260644932793285,2.2132555571208137,1.2655232016338414,1.5781022997781535,2.8754746684166976
64,1456704185095638,5.010675216793056,7.5827612542934135,11.099303581025172,4.333607023324648,2.2260354140957954,1.2698732975898248,1.5668361995411997,2.902258334344162
65,1456704185095638,5.0574615581726325,7.513224492224809,11.058792692061175,4.423591026006683,2.2346804546773695,1.2735281656961002,1.5560554734888072,2.9212057560553917
66,1456704185102639,5.088980292917033,7.444250713380082,11.031751763541651,4.5296986220483335,2.2390538488659164,1.275952067491725,1.5458412275475706,2.9322250187644774
67,1456704185102639,5.105064309096685,7.375310193743689,11.017845955636826,4.650724757142786,2.239113142869644,1.2766272099281357,1.5362877633824912,2.9354041262843493
68,1456704185118639,5.105807243434588,7.305804585125251,11.016325785167577,4.785177608193727,2.234917285704205,1.275074529490734,1.527497836619056,2.9310143418985644
69,1456704185118639,5.091560218571807,7.235084488438448,11.026039025440216,4.931299462496385,2.226630122897051,1.2708732592038618,1.5195781675645326,2.9195071471224363
70,1456704185125640,5.062924402529053,7.162466295661476,11.045452279304532,5.087088952362905,2.2145193140276893,1.2636781655406315,1.5126353723603836,2.90150471372114
71,1456704185125640,5.020739317659323,7.087249093723446,11.072683163898315,5.250325181887446,2.1989498552729607,1.2532334061799792,1.5067724724934053,2.8777840414802855
72,1456704185140641,4.966066531398984,7.008732741999252,11.105543577626499,5.418594520353501,2.1803719875416,1.2393821565130017,1.5020861853984184,2.8492552875736057
73,1456704185140641,4.900168240151878,6.926238402811595,11.141593981378504,5.5893211699031085,2.159304108417649,1.2220715565549,1.4986652070244821,2.8169353161076587
74,1456704185147641,4.8244804260533405,6.83913248266786,11.178207832070367,5.759802597577261,2.1363119888193656,1.201353020043218,1.4965895986881899,2.7819179437848534
75,1456704185147641,4.740580607715395,6.746854177668201,11.212644222674406,5.927250365565646,2.1119858552638333,1.1773783241034932,1.4959311963751243,2.7453425619151934
76,1456704185155647,4.650150503025262,6.648945924770949,11.24212595033216,6.088836079098899,2.08691678728293,1.1503920826232763,1.4967547482184453,2.7083627699067128
77,1456704185155647,4.554934203457034,6.545085361767909,11.263920095058916,6.241741490668011,2.0616736393556905,1.1207212751081561,1.4991193548312995,2.672116497930409
78,1456704185163148,4.456692937996748,6.435117062203695,11.275418511373664,6.383211452834303,2.0367815406324232,1.0887625555860483,1.5030798087874613,2.6376989173304137
79,1456704185163148,4.35715818903351,6.3190822344812885,11.274215977252739,6.510608324277164,2.0127029925438693,1.0549681073026196,1.508687590829031,2.606139206546512
80,1456704185178653,4.257985556889204,6.197244524871838,11.258184049136561,6.621466331071174,1.9898225584515663,1.0198307769230899,1.5159914931607308,2.578381936276797
81,1456704185178653,4.160712118399275,6.0701100236960155,11.225538996302367,6.713544051769505,1.9684360066141628,0.9838691123212864,1.525038020845547,2.555273527284254
82,1456704185185653,4.066720006725261,5.938439702011822,11.174902207420429,6.784872690603724,1.9487445078749763,0.9476128131081467,1.535871823936294,2.537553952446983
83,1456704185185653,3.9772085485343065,5.803252788537971,11.10535074188418,6.833797484696433,1.9308541262594225,0.9115890353581433,1.548536399389386,2.525853532309706
84,1456704185192753,3.893176559981736,5.6658198462520035,11.016454552938514,6.859009942295836,1.9147804020259733,0.8763099577203992,1.5630751578084474,2.5206942734170394
85,1456704185192753,3.8154154237916575,5.527644549288683,10.908296506499216,6.859569775184227,1.9004573856382676,0.8422619753605335,1.5795327054746775,2.5224948102643796
86,1456704185207655,3.7445125271539994,5.390433751208014,10.78147248614908,6.834916801732127,1.887750165834971,0.8098968111226762,1.5979559128975729,2.5315777387670804
87,1456704185207655,3.6808637468792607,5.256056630256972,10.63707109984479,6.784873955111109,1.8764698464617597,0.7796247059564536,1.6183941327281635,2.548177964208009
88,1456704185215740,3.624693075512337,5.12649518990345,10.476634650292432,6.709642692745885,1.8663900379295855,0.7518096788912623,1.6408979259937826,2.5724505626963095
89,1456704185215740,3.5760772135007928,5.003789507774925,10.302104642811003,6.6097920818173,1.8572640866806702,0.7267666582070739,1.6655159157845687,2.6044766198464493
90,1456704185230661,3.534972926611563,4.889981439036697,10.115756284113932,6.486242941824688,1.8488423249935613,0.7047601163610774,1.692289797128544,2.6442657767952387
91,1456704185230661,3.501245088738329,4.787060068664454,9.920126953394977,6.34024841626446,1.8408885701499709,0.686003725822003,1.7212478748471525,2.691754925443066
92,1456704185238851,3.4746935588342365,4.696911390575385,9.717943166184867,6.17337195423686,1.833195013416721,0.6706605297818072,1.7523976515864477,2.7468034480951347
93,1456704185238851,3.4550773564572967,4.621273794923409,9.512049334352167,5.987463021827858,1.825594573237533,0.6588432218945619,1.7857179708866393,2.809186154550669
94,1456704185245656,3.4421349155702665,4.561700224306284,9.305340257344092,5.78463022610179,1.8179697861761765,0.6506143278988472,1.8211510924811123,2.8785853933587005
95,1456704185245656,3.4355994031658366,4.51952736421954,9.100698214139449,5.567211136657097,1.8102574475416184,0.6459862925309546,1.8585948668467263,2.9545838172276415
96,1456704185252851,3.4352082058566027,4.495851766686114,8.900934974259416,5.337738027383624,1.8024485316195502,0.6449216256328931,1.8978949721510308,3.0366591461321235
97,1456704185252851,3.4407058820962586,4.491512242316218,8.708738970771,5.098899023321952,1.794583364485414,0.6473333477925941,1.9388371604891024,3.12418203721383
98,1456704185268108,3.45184035105628,4.50707742608794,8.526628012375674,4.853494638588056,1.7867425062536013,0.6530860201491557,1.981139737940415,3.2164178457457933
99,1456704185268108,3.4683529156936577,4.5428374675621415,8.35690805603092,4.604390281687905,1.779034260298391,0.6619976411909638,2.024446936199465,3.312532707307817
100,1456704185275610,3.4899637108245867,4.598799288154071,8.201638717099772,4.354465759326925,1.7715800874461818,0.6738426341413942,2.0683241358393354,3.411604069768102
101,1456704185275610,3.516354944810503,4.674685376394942,8.062606320683384,4.106562976503445,1.7644993817469834,0.6883560526625065,2.112255911649748,3.5126356375850234
102,1456704185290610,3.547154586942575,4.769936320172194,7.941305241827687,3.863433013048913,1.7578950276418563,0.7052390378227554,2.155647661194684,3.6145766509602915
103,1456704185290610,3.5819229455844654,4.883717203663123,7.838927947475138,3.62768381192224,1.7518409350587694,0.7241654743470749,2.1978313051573193,3.716345296092263
104,1456704185298609,3.6201440447607567,5.01492780231323,7.756363501340153,3.401729975546993,1.7463724163921897,0.7447896972069253,2.2380752905007135,3.816855594175087
105,1456704185298609,3.661223005110392,5.162216336720761,7.694203357270213,3.1877465269321545,1.7414799185922525,0.7667549786143426,2.275598888648697,3.9150464219504157
106,1456704185305612,3.704489921146299,5.323996450113432,7.652752390771835,2.9876287116066513,1.737106309931319,0.7897024003419493,2.3095905545415047,4.0099107426366185
107,1456704185305612,3.749210092433464,5.498466988060054,7.632042889352159,2.8029598032588225,1.7331476550338816,0.8132796248227658,2.3392298706185617,4.100522942182986
108,1456704185312365,3.7945998888734063,5.683633952736977,7.631849825293214,2.6349884070125005,1.72945719036927,0.8371490501155424,2.363712293552674,4.186062330144525
109,1456704185312365,3.8398469804763926,5.8773337016834635,7.651706572641909,2.4846160509164057,1.7258520316632397,0.8609948753322707,2.3822755638511897,4.265831204555698
110,1456704185327563,3.884133219866313,6.077256385145101,7.690920573143089,2.352395096832177,1.7221219994741892,0.8845287094094371,2.3942263167162907,4.339266293191008
111,1456704185327563,3.9266582302167246,6.28096912841109,7.748588345504504,2.238536384054306,1.7180398509259336,0.9074935196072983,2.3989652215856387,4.405942829012751
112,1456704185335617,3.966661758410261,6.485939461035983,7.823609343906457,2.1429256903094522,1.7133721878258497,0.9296659092397631,2.3960089263874456,4.465570994283508
113,1456704185335617,4.003443149974338,6.68956037435063,7.914698892763511,2.0651480091869403,1.7078903875660831,0.9508568810764635,2.3850072733947796,4.517985019194787
114,1456704185358874,4.0363769189623,6.889178688741875,8.020401488245566,2.004518592903134,1.7013810262075864,0.9709113327713559,2.3657547744610206,4.5631258349941985
115,1456704185358874,4.064924182173595,7.082128198414796,8.139106650694545,1.960119574945894,1.6936553574354096,0.9897065342908072,2.3381961246101746,4.601018727161075
116,1456704185360120,4.0886403992331415,7.265768568497508,8.269069854125785,1.9308408295173796,1.6845574470342506,1.007149785154244,2.3024262951104313,4.631747805530669
117,1456704185360120,4.107180136151763,7.437530200285162,8.408440661378515,1.9154236268010032,1.6739705880996794,1.0231753887459016,2.2586861550394075,4.655429352903913
118,1456704185366119,4.12029940225602,7.594964250229866,8.555299061346693,1.9125056091838872,1.661821723388144,1.0377410594447376,2.207354612967385,4.6721862910369225
119,1456704185366119,4.127855734878574,7.7357959548808495,8.70769934610103,1.9206656214465208,1.648083818479541,1.0508239129657486,2.148938197515205,4.6821259998315625
120,1456704185372788,4.129805974116159,7.857978699246113,8.863719100246056,1.9384669753125194,1.6327763972962783,1.0624162382174456,2.0840589379294903,4.685323375593348
121,1456704185372788,4.1262017193636655,7.959745924017817,9.02150956083274,1.9644978102507256,1.6159646438057411,1.0725212564144986,2.0134412714442864,4.6818103692688595
122,1456704185387788,4.11718260609824,8.039657900058433,9.179343078675071,1.9974072819018098,1.5977575217273754,1.0811490574469134,1.9378984220029827,4.671572560469426
123,1456704185387788,4.102967582604909,8.096640605572821,9.335653440861416,2.0359363000836472,1.5783053005497452,1.0883129163400609,1.8583183633750355,4.6545527835759
124,1456704185395585,4.083844357071026,8.130014452842964,9.489065013383081,2.078941464968502,1.5577967641095705,1.0940262194183943,1.775649263913642,4.63066145461329
125,1456704185395585,4.06015726715107,8.139511294414383,9.638407244036355,2.1254108987465887,1.536456237539675,1.0983002104538975,1.69088428272455,4.599793025297877
126,1456704185410788,4.032293945019,8.125278780373911,9.782712554815513,2.1744710972736403,1.5145403891297278,1.1011426952968117,1.6050456918036957,4.561847824496387
127,1456704185410788,4.000671184333905,8.087871734387353,9.921197840601128,2.2253847673431895,1.492334573612083,1.102557772701666,1.519168429132881,4.516758258213932
128,1456704185418786,3.965720431519102,8.028230958677856,10.053231742003286,2.277540557841404,1.4701483722023283,1.1025466256442316,1.4342832650754664,4.464517826465482
129,1456704185418786,3.9278734850095893,7.947650774596893,10.178290984646031,2.3304362666506613,1.4483100258702586,1.1011093899668138,1.3513997906387143,4.405210826268418
130,1456704185425785,3.8875492378389835,7.8477373556081,10.295909564157903,2.3836574169180893,1.4271596328921985,1.0982480682280138,1.2714894949975928,4.33904027173806
131,1456704185425785,3.845142410180863,7.730360288992372,10.405624874456878,2.436853175036967,1.4070412138129718,1.0939703610607132,1.1954693352543833,4.266351698667796
132,1456704185432580,3.801015097872464,7.597599910697319,10.506925228780542,2.489711540896249,1.3882939674579955,1.0882941835694662,1.1241863227594617,4.187650997666186
133,1456704185432580,3.7554916952033452,7.451692924377906,10.59920336833368,2.541935618894047,1.3712431793517308,1.0812525596215379,1.0584036413579425,4.103614875913993
134,1456704185447580,3.7088573681767394,7.294978540289953,10.68172011600021,2.593222604108807,1.3561912327513477,1.0728985235753268,0.9987886707225795,4.015092841776167
135,1456704185447580,3.661359748120798,7.129846779460456,10.753581272128311,2.643246909882886,1.3434090359341821,1.0633095663396899,0.9459030928945732,3.923099957436727
136,1456704185456094,3.61321303108037,6.958689918073373,10.81372946660308,2.6916485980498654,1.333128051096854,1.052591067515349,0.90019509855402,3.828800227708997
137,1456704185456094,3.564603445190513,6.783857657429189,10.86095130044638,2.7380278990678795,1.325533107642481,1.040878135800175,0.8619936447141908,3.7334812874709113
138,1456704185470604,3.5156951827137606,6.607616680037589,10.893899011381189,2.781946101561951,1.3207562815985279,1.0283353697054831,0.8315047471672784,3.638521705969455
139,1456704185470604,3.466636290422701,6.432115665466234,10.911125361723538,2.822932510619466,1.318872196415852,1.0151542303955907,0.808809848202996,3.5453525391054685
140,1456704185486605,3.4175644648400385,6.259357156343048,10.91113051366934,2.8604966655876733,1.319895064392104,1.0015479659105433,0.7938663246930799,3.4554148049644624
141,1456704185486605,3.3686129729598755,6.091177474454112,10.89241989200252,2.8941446950033467,1.323777667117912,0.9877443163957732,0.7865102027135107,3.370114571406894
142,1456704185488605,3.3199169011181553,5.929235262666748,10.85357182556637,2.9233985645596055,1.330412333692589,0.9739765226178745,0.7864611460501287,3.290777475058383
143,1456704185488605,3.271619716260327,5.77500857138959,10.793312856083848,2.947816929548815,1.339633847496296,0.9604734064837506,0.7933297663104987,3.2186046687322056
144,1456704185492605,3.2238798771959596,5.629799840184736,10.71059720427697,2.9670162216783775,1.3512240937391082,0.9474494401374135,0.8066272229293979,3.15463223463818
145,1456704185492605,3.1768770696931306,5.494747440005377,10.604685391059343,2.980690455040337,1.3649181551388807,0.9350957330783931,0.8257769493522318,3.0996959207091885
146,1456704185507610,3.1308176043540166,5.370841608919727,10.475215949950558,2.988628111567513,1.3804114967349517,0.9235727483748849,0.8501282163335295,3.054402764508659
147,1456704185507610,3.0859386204361026,5.258941981167652,10.322264086940702,2.9907245125365267,1.397367881336996,0.9130053416567068,0.8789711745116999,3.0191108945893825
148,1456704185515816,3.042510943387012,5.159793937645668,10.14638228927159,2.9869884277181136,1.4154277280201464,0.9034804401654853,0.9115530025235237,2.993918505435525
149,1456704185515816,3.0008406473909837,5.074041871970078,9.948619908530391,2.97754231393616,1.4342167307214844,0.8950473874773593,0.9470947871729619,2.9786625708276815
150,1456704185530884,2.9612694489832285,5.002238780794216,9.730520808695424,2.962616319076612,1.4533546363932255,0.8877207157336786,0.9848087540325672,2.97292731481152
151,1456704185530884,2.924173927510863,4.944852614369019,9.494099594784057,2.942536809015936,1.4724641115827204,0.8814849053613006,1.0239154573355,2.976061959433615
152,1456704185538649,2.8899632652434004,4.90227013100974,9.241797876798135,2.9177106227483205,1.491179611053347,0.8763005719870108,1.0636605482105015,2.9872069157696406
153,1456704185538649,2.859074865185058,4.87479879028738,8.976423142764544,2.8886066013576035,1.5091561177017987,0.8721114828518128,1.1033307751479364,3.0053273378584784
154,1456704185545608,2.8319670263681154,4.862667009129229,8.701074319313083,2.8557361606131995,1.5260775513752658,0.8688518338522927,1.142268915205897,3.029252728125851
155,1456704185545608,2.809107975161441,4.866023179175447,8.419059516540798,2.819634707387952,1.5416645533869953,0.8664532904468041,1.179887377442955,3.0577210461653688
156,1456704185561057,2.7909609909466435,4.88493407617514,8.133812190428284,2.780845496085703,1.5556812710522867,0.8648513903375977,1.2156802589717133,3.0894255918225006
157,1456704185561057,2.7779659956003666,4.919383428296819,7.8488117057148035,2.7399071006601736,1.5679407159506977,0.8639909958727505,1.2492336591790676,3.1230628775078397
158,1456704185567817,2.7705185426050707,4.9692713434003,7.5675131078938405,2.697345116397845,1.5783082691364867,0.8638305474726853,1.280234060440478,3.157379758263403
159,1456704185567817,2.7689474458839998,5.0344150124387435,7.293289132951866,2.653668132510479,1.5867030044793375,0.8643449310121757,1.3084745842112375,3.191218144044205
160,1456704185576071,2.7734923770435134,5.114550637242065,7.02938546061547,2.609367548410487,1.5930967357443317,0.8655268847021698,1.333858965175794,3.223555629097135
161,1456704185576071,2.784282813180507,5.20933605855451,6.7788882553687415,2.564920482258921,1.5975109872703415,0.8673870252861496,1.3564031562526249,3.2535405030980855
162,1456704185591159,2.801319790463504,5.3183533437386075,6.544701392495424,2.520794805538642,1.6000122869465538,0.8699526867977759,1.376234540903649,3.2805200867529503
163,1456704185591159,2.8244619284011017,5.441110686525047,6.329529613144802,2.4774551705274694,1.6007062151402933,0.8732657790110209,1.393588735161809,3.304062079514692
164,1456704185599123,2.8534170738191738,5.577043146175687,6.135863288896697,2.435368764592428,1.599730581728488,0.8773798056714252,1.4088039039644842,3.3239691640521745
165,1456704185599123,2.887740643178816,5.725511816956462,5.965960585786553,2.3950095211841305,1.5972480539806624,0.8823560941619487,1.4223124449997582,3.340287088105459
166,1456704185606161,2.926841283513523,5.885801123121691,5.821823727249251,2.3568597651766545,1.5934385861918754,0.8882592383959648,1.4346298496691139,3.353305892861668
167,1456704185606161,2.9699938557306482,6.0571143512742704,5.705167783891947,2.3214087372045635,1.5884920938844675,0.895151786224207,1.4463405332503665,3.363553322650071
168,1456704185620867,3.016359077456163,6.23856813681838,5.617382581078471,2.289147924040616,1.5826018875606727,0.9030883107466875,1.458080475865391,3.3717793012391426
169,1456704185620867,3.0650085472977904,6.429186905333931,5.559490221136941,2.2605634489332256,1.5759593529727798,0.9121091435680384,1.4705167417305383,3.3789310157984014
170,1456704185627868,3.1149533771289715,6.627897907569995,5.532101921252627,2.2361259427709883,1.5687502278437724,0.9222341535786539,1.4843243602117522,3.3861193022462035
171,1456704185627868,3.165174357650703,6.833526705099121,5.5353783867845525,2.2162784139271094,1.561152639256772,0.9334569901190738,1.500161476009303,3.394577922462137
172,1456704185635868,3.2146515588368585,7.044792323003693,5.568997907362197,2.201422738528033,1.5533369047442493,0.9457401767994787,1.5186438945780019,3.4056175403586257
173,1456704185635868,3.2623915759950637,7.260301155994427,5.632135823728203,2.1919055111810364,1.545466976555926,0.9590113669092714,1.540320126431873,3.420576024189516
174,1456704185650863,3.307451224555975,7.478539059039409,5.723458030895739,2.1880040513605303,1.537703256242524,0.9731609835958078,1.5656478894760462,3.4407666762209583
175,1456704185650863,3.348957160618213,7.697861784588182,5.841129940161607,2.189913274206304,1.5302062619874273,0.9880413923546135,1.5949728730105839,3.46742631779957
176,1456704185658885,3.386121408717006,7.916485094538434,5.98284112360786,2.19773393471452,1.523140332857207,1.0034676921964905,1.628510440418872,3.501665541797831
177,1456704185658885,3.4182530029023845,8.13247723865575,6.145845012874051,2.2114625466464575,1.5166763487655823,1.0192201442906688,1.6663308759089872,3.54442346487122
178,1456704185665849,3.4447659943126108,8.343757434642283,6.327012577842634,2.2309831483059526,1.5109924893010618,1.0350481713846442,1.7083487825636396,3.5964288652471357
179,1456704185665849,3.4651841501807565,8.548104097374182,6.522898641346494,2.2560610825053047,1.5062723986734536,1.0506757822412862,1.7543172623441883,3.6581689366940244
180,1456704185681882,3.479142878918285,8.743175861354162,6.729819156238323,2.286339078826525,1.5027006683140507,1.0658082411508365,1.8038274505293739,3.7298663549174447
181,1456704185681882,3.4863891835759424,8.926547055871563,6.943937337941412,2.321336088549572,1.5004560886346683,1.0801398135431075,1.8563137827820064,3.8114650552993834
182,1456704185689868,3.4867805675066137,9.095757425409863,7.161356022091531,2.3604493870005268,1.4997034549391917,1.0933624179957713,1.9110650675341911,3.902624895211794
183,1456704185689868,3.480283654788349,9.248373909542847,7.378212941046869,2.4029603438005522,1.5005847756149506,1.1051749440402405,1.9672410809372725,4.00272497998336
184,1456704185695864,3.4669729161020935,9.38206062396459,7.590774835693069,2.4480440013632707,1.5032106302536017,1.1152928728613447,2.023894077125686,4.1108748722040005
185,1456704185695864,3.447029525346267,9.494652155732242,7.795525832271377,2.494782304723537,1.5076522962096184,1.1234577536656936,2.079994412460313,4.225932471283323
186,1456704185710900,3.4207401700423965,9.584225138744186,7.989245862238762,2.542180599753314,1.5139351336535856,1.1294460999900742,2.1344594782284974,4.346527294189652
187,1456704185710900,3.3884955763866325,9.649163734857389,8.169076187358977,2.5891868902000517,1.5220335606454027,1.1330773464640977,2.1861852596565026,4.471088129347856
188,1456704185718865,3.3507884521770825,9.688215581352607,8.3325706744713,2.6347132757753653,1.5318677812443915,1.1342205926048468,2.234079927248102,4.597874291940991
189,1456704185718865,3.3082104041652154,9.700535509538641,8.477732605073745,2.67765897722233,1.5433023206011869,1.1327999399094681,2.277098790428528,4.72500981528078
190,1456704185725866,3.2614471868942325,9.685715106347667,8.603037471079709,2.716934429609899,1.556146402737111,1.1287982928611267,2.3142796961815035,4.850519904313937
191,1456704185725866,3.2112715117332087,9.643797445875476,8.707442766768423,2.7514860620986776,1.5701562324441858,1.1222595179244854,2.344777621477515,4.972368969358343
192,1456704185740901,3.1585326952989643,9.575277841472722,8.790386146908352,2.7803214498630813,1.585039237867994,1.1132888396548375,2.3678968913913496,5.088499663245172
193,1456704185740901,3.1041426895845046,9.481092500104433,8.851773066299764,2.802534422975705,1.600460263417023,1.1020513447919928,2.3831192128383845,5.1968725904191935
194,1456704185747867,3.049058481745791,9.362597192636585,8.89195423751284,2.8173294843826837,1.6160495939222983,1.0887685057581624,2.390125581863968,5.295506609339528
195,1456704185747867,2.9942614044955316,9.221537825809403,8.911692653601818,2.824044633897646,1.6314125693332786,1.0737127433419307,2.388810240442327,5.382519722529123
196,1456704185762875,2.9407344323184073,9.060014389540022,8.912120158637329,2.822171510360997,1.646140425859314,1.0572002191179524,2.3792854264258723,5.456170355917034
197,1456704185762875,2.8894388977761305,8.880439180121222,8.894684609763326,2.8113717325441545,1.6598218852749271,1.039582224971911,2.3618766272875424,5.514898376822732
198,1456704185771880,2.8412921496894676,8.685489670797574,8.861089968070463,2.7914885032489853,1.6720549502173943,1.0212356360615151,2.337109034481592,5.557364588731971
199,1456704185771880,2.7971475247004003,8.478056208769067,8.813232498348782,2.7625528929158607,1.6824583963506117,1.0025528886681145,2.305686559984646,5.582486925929469
200,1456704185778881,2.7577777229110803,8.261184797131909,8.753136386307435,2.724784582013752,1.6906825549138451,0.9839318824363767,2.2684650936104513,5.589471425920498
201,1456704185778881,2.7238623352830507,8.038015366805531,8.68289172167696,2.678587103873975,1.6964190577058798,0.9657661344745627,2.2264217879313057,5.577836340074698
202,1456704185785881,2.6959798663167707,7.811716264141475,8.604597293983964,2.6245378137189292,1.699409241675293,0.9484354409992174,2.1806221405133277,5.547428241388867
203,1456704185785881,2.6746041301718546,7.585416345025426,8.520310151509898,2.5633729821034668,1.699450961743039,0.9322972254513077,2.1321865178776735,5.498429390761255
204,1456704185800882,2.660104432623558,7.362136867533663,8.43200331820951,2.495968604032826,1.6964036988197482,0.9176786717838775,2.082257550957873,5.431355833448627
205,1456704185800882,2.6527485885142363,7.14472593924296,8.34153232711943,2.423317733072491,1.6901920209281405,0.9048696825896365,2.031969553624048,5.347046000207989
206,1456704185807882,2.652707626522202,6.935798480684632,8.250610282468582,2.3465053438588646,1.6808075543779752,0.8941167043976488,1.9824207882440783,5.24664031212592
207,1456704185807882,2.660060973926254,6.737684546353661,8.160790163554179,2.2666818069043444,1.66830960506128,0.885617534392201,1.9346490416152646,5.131553284241738
208,1456704185815883,2.674800969156881,6.55238834394787,8.07345241050359,2.185036013347779,1.6528244880920757,0.8795173106059788,1.8896106300942954,5.003440313158391
209,1456704185815883,2.6968357963557192,6.381559394591711,7.98979591039408,2.102769083989077,1.6345435616598394,0.8759059104512913,1.8481627093919095,4.864161348272034
210,1456704185830919,2.725990425368743,6.226476144712262,7.910831379482127,2.021069455938921,1.6137199385232277,0.8748168905966742,1.811048689090743,4.715743152974163
211,1456704185830919,2.7620057136826213,6.088041158799731,7.8373772862079765,1.9410899246230846,1.5906638177465808,0.8762279207467384,1.7788866259674634,4.5603412217615915
212,1456704185838924,2.804536240268784,5.96678594896903,7.770059158944126,1.8639269514294492,1.565736337386307,0.8800624941774576,1.75216060772347,4.400201868600979
213,1456704185838924,2.853147639059282,5.862882832880623,7.70931301283861,1.7906023215932425,1.5393418810475308,0.8861926439429102,1.7312152659533262,4.237624742842449
214,1456704185845884,2.9073143236735794,5.776161241465214,7.655392897874068,1.7220471254959093,1.5119189214106776,0.8944424753894021,1.7162536348574142,4.074926185824116
215,1456704185845884,2.9664186711969798,5.706126482815391,7.608381683631285,1.6590880300498372,1.483929667926776,0.9045924533165054,1.707338579959285,3.9144041826587457
216,1456704185861137,3.0297529201025784,5.651979702358952,7.568203538652637,1.6024358351842252,1.4558488984382523,0.916384440572993,1.7043979668606581,3.7583057223928193
217,1456704185861137,3.09652506539832,5.612638558340622,7.534636349922037,1.5526763213968624,1.4281523814090784,0.9295274354050591,1.7072336388658105,3.6087969802010735
218,1456704185868178,3.165869762119231,5.586759092796425,7.507322681302996,1.5102633897137316,1.4013052784573774,0.9437038465969395,1.7155341125010792,3.4679361734330345
219,1456704185868178,3.236864674434609,5.572760238898447,7.48577869794733,1.475514477880511,1.3757508863935892,0.9585760602076976,1.7288906869701135,3.3376486017332923
220,1456704185875555,3.308551950836204,5.568852879338346,7.469401430751233,1.448608186703841,1.3519000469348361,0.9737930500768205,1.7468164621530362,3.219703371360565
221,1456704185875555,3.3799637342075735,5.573075101904914,7.457475476188131,1.429583987048594,1.3301215195583143,0.9889968681693839,1.7687676366002496,3.1156915304912056
222,1456704185890557,3.4501499912284297,5.5833344570648,7.449180583058441,1.4183438665543289,1.3107335715041952,1.0038289703092549,1.7941664050526729,3.0270056782591963
223,1456704185890557,3.5182066088492707,5.597456987682488,7.443601532965036,1.4146558413402635,1.293997000163834,1.0179364358737388,1.8224247122639456,2.9548213741719325
224,1456704185898553,3.583301755321431,5.613241925699287,7.439741322145234,1.4181593512727781,1.280109783493626,1.030978193054426,1.8529679616859782,2.9000806891450694
225,1456704185898553,3.6446988987715767,5.628520376037661,7.436538101665288,1.4283726137956037,1.2692035371687558,1.0426313379328551,1.8852575377360297,2.863478071824774
226,1456704185912314,3.7017753728570635,5.6412159108193585,7.432885824259762,1.4447020035109879,1.2613419054374155,1.0525975399722733,1.9188108131844506,2.845448632997161
227,1456704185912314,3.7540356912440287,5.649404574850937,7.4276580639613945,1.4664534551609456,1.2565209155337809,1.0606094169027722,1.953217303843242,2.8461591010013803
228,1456704185920511,3.8011188818274286,5.651371314128493,7.4197339726293885,1.4928457839058005,1.2546712161133144,1.0664367029642678,1.9881497903907142,2.8655019134032704
229,1456704185920511,3.842799172086946,5.645659464398073,7.408024994810813,1.5230257381754377,1.2556620406183887,1.069892034247739,2.02336948633662,2.9030930230199568
230,1456704185935511,3.8789797285704988,5.631109977406559,7.39150099271405,1.5560846033777211,1.259306691244611,1.0708361984908046,2.058724717325037,2.958274036592362
231,1456704185935511,3.909679922023387,5.606887780782997,7.369214726574292,1.5910762452160063,1.2653693046459091,1.069182718243736,2.0941431341649617,3.0301193381006994
232,1456704185936315,3.935017464584408,5.572494121245471,7.340323864251319,1.6270365339132522,1.2735726433993821,1.064901642705719,2.1296181160800174,3.1174488349439806
233,1456704185936315,3.9551873425250528,5.527765626600007,7.3041097463521805,1.663004054238675,1.283606695507998,1.0580223941540432,2.1651905597837637,3.2188468482995782
234,1456704185950561,3.9704396291709667,5.472862523438236,7.259992240418982,1.6980418840038929,1.2951379554545188,1.0486354564382796,2.2009276037671452,3.332687470783535
235,1456704185950561,3.9810581806625223,5.408249417138353,7.207540425020686,1.7312600764484325,1.3078193394485393,1.0368926795162257,2.236900002750141,3.457166460826376
236,1456704185958728,3.9873420516372398,5.334672154537037,7.146479535486887,1.7618383629330825,1.3213006900532496,1.0230060807604218,2.273159868758627,3.5903394266359077
237,1456704185958728,3.9895912608831408,5.2531337868620005,7.076695379408663,1.7890484774703155,1.3352397390696114,1.0072452181659097,2.309720392977283,3.730165709726103
238,1456704185973220,3.9880982865535457,5.164871820841625,6.998238022165581,1.8122753265779565,1.3493132556526637,0.9899333699010057,2.3465390340569456,3.8745570791850548
239,1456704185973220,3.9831463251511137,5.071337935670894,6.9113266147145564,1.8310360071198362,1.3632279593448131,0.9714427931900713,2.3835055154051163,4.021430105474862
240,1456704185980221,3.9750148517555264,4.97418023197352,6.816356601315476,1.8449955381584722,1.3767306674889672,0.9521892636927685,2.420435747388162,4.168760856406957
241,1456704185980221,3.963992409794011,4.875227064719028,6.7139094173697185,1.8539782274725531,1.3896170979024158,0.9326259684261158,2.457072411733105,4.314640306822813
242,1456704185995426,3.950395901805022,4.776470880670208,6.604763563828303,1.8579738505868248,1.4017387740600893,0.9132366869480911,2.4930924119290845,4.457328541014736
243,1456704185995426,3.9345949369917452,4.680050317638434,6.489904826324046,1.8571382071498628,1.4130075832845783,0.8945280885513298,2.528120785242691,4.595305457590323
244,1456704185997222,3.9170390052349138,4.5882288942783145,6.370532536821719,1.8517880171563863,1.4233976936228487,0.8770209465861357,2.5617501389628528,4.727315328857653
245,1456704185997222,3.8982844775674144,4.503368673162316,6.248058543703748,1.8423904600498264,1.4329446973965205,0.8612401543017596,2.5935643525198904,4.85240226549718
246,1456704186010263,3.8790178710359275,4.4278973534947905,6.124096311226598,1.8295479746183647,1.4417419934816398,0.8477035870989592,2.62316516466733,4.9699334183990835
247,1456704186010263,3.860071720783693,4.364267534870533,6.000439141723774,1.813979219637215,1.4499345519620197,0.8369100136507294,2.6502001520174985,5.079606837388322
248,1456704186018228,3.842429964516575,4.314907467117919,5.879028334226024,1.7964972083514317,1.4577103270223828,0.8293263580796023,2.6743903167293004,5.181441693465485
249,1456704186018228,3.8272208749392242,4.282163481850767,5.7619135838889095,1.7779854795898846,1.4652896736998497,0.8253746618873882,2.6955550470368053,5.275750109404721
250,1456704186032228,3.8156969219999106,4.2682354944967855,5.651208691435547,1.7593728690748345,1.4729131476495931,0.8254191160072205,2.713631814179161,5.363091617110112
251,1456704186032228,3.8092021905895566,4.275108209051333,5.549045581690525,1.7416072301487102,1.480828037135537,0.8297535498607995,2.7286879603271457,5.444212741213444
252,1456704186048224,3.809128999221857,4.304481463799979,5.457528911078298,1.7256284777080584,1.4892740002497886,0.8385897842463705,2.740922598372636,5.519975353052379
253,1456704186048224,3.8168661211981134,4.357703334764653,5.378692495412142,1.7123415546843976,1.4984683657688391,0.8520472731562246,2.7506579293302256,5.591278393455548
254,1456704186055731,3.833741472297482,4.435709421205406,5.314457739271934,1.7025901502469063,1.508591932266736,0.8701444642921026,2.7583206954516406,5.658978221688759
255,1456704186055731,3.8609623158472552,4.538971399329475,5.266593529636414,1.697132066189169,1.5197762508740449,0.8927922966078228,2.764415487215346,5.723812964972507
256,1456704186056732,3.8995559660294488,4.667457379587013,5.236676965878608,1.6966170601143384,1.532093293159182,0.919790225439918,2.7694920716885174,5.78633575044902
257,1456704186056732,3.95031363131519,4.8206058004745325,5.226054853750106,1.701567916894254,1.5455481830926545,0.9508251146685349,2.774109033655007,5.846860786004044
258,1456704186070283,4.013739508973981,4.997313781551146,5.235806645935359,1.7123654326719715,1.5600754481493149,0.985473263374637,2.7787960574856565,5.905425265412846
259,1456704186070283,4.090006744790434,5.1959402977087725,5.266709906640973,1.729237863399951,1.5755390559206586,1.0232057584847647,2.7840171928130424,5.961769304801642
260,1456704186078288,4.178921617848901,5.414324146338003,5.319209306276032,1.7522551815146907,1.591736312822377,1.0633972695465272,2.790137371646668,6.015335533096633
261,1456704186078288,4.279897315035888,5.64981620877904,5.39338994572869,1.781328262638971,1.6084054761545943,1.1053382997135162,2.7973941761734578,6.065289215569669
262,1456704186092248,4.3919387509258065,5.899324951267921,5.488955754973383,1.8162129079664904,1.625236665925583,1.148250743426637,2.805876380944558,6.110558641304841
263,1456704186092248,4.513639832620993,6.159373679063263,5.605213826724254,1.8565183591834524,1.6418853802341595,1.1913063849604535,2.8155102369956526,6.14989400588006
264,1456704186100249,4.643194263249983,6.426167838923269,5.74106577179796,1.901719682892523,1.6579876483467177,1.2336477616949768,2.8260539848602915,6.181941331135036
265,1456704186100249,4.778420504176816,6.695670625968339,5.89500754596483,1.9511731554972065,1.6731756388010564,1.2744106572319804,2.8371007107165505,6.205326202771325
266,1456704186115251,4.916800937487076,6.963685359253132,6.065139641523356,2.0041336435107033,1.687092455952996,1.312747381707177,2.848089288889986,6.2187405061518675
267,1456704186115251,5.055534530272424,7.225943610944179,6.249189707206755,2.0597730264667726,1.6994050202861986,1.3478499586651198,2.8583226711948373,6.221024465031893
268,1456704186116250,5.191601430965522,7.47819870492371,6.444549154084255,2.1171990008296535,1.7098143672456976,1.3789724321276322,2.866992218226662,6.211236802592209
269,1456704186116250,5.321837181357269,7.716324540325935,6.648324110939265,2.1754740498459406,1.7180632555212847,1.4054517189297,2.8732063471600684,6.188707872178674
270,1456704186130251,5.443013927630111,7.936419448533185,6.8573995809674155,2.2336347578295688,1.7239413948847166,1.4267266103747194,2.8760217919762927,6.15307348430443
271,1456704186130251,5.551926279161395,8.134913935367,7.0685142630112185,2.290711838294514,1.7272887764001597,1.44235455182952,2.87447627876878,6.104289916508813
272,1456704186138291,5.645480059469835,8.308679861483395,7.27834264574552,2.345751244960023,1.7279975931318359,1.4520257422864347,2.867622030155844,6.042632505729627
273,1456704186138291,5.720782643363009,8.455137131429547,7.483580989526223,2.397836640444816,1.7260131793237015,1.4555740115735945,2.854559758999727,5.968681016507177
274,1456704186152252,5.77523350473783,8.572352705836513,7.6810345781047795,2.4461133952049128,1.7213343218940096,1.4529839027051612,2.834472577485533,5.883294836365799
275,1456704186152252,5.8066130015579045,8.659126211311433,7.867704477153903,2.4898142001390666,1.7140132593897077,1.4443934417747404,2.806658768338756,5.787580459563601
276,1456704186160757,5.813166631435333,8.715056790859757,8.040872332019507,2.5282862362248877,1.7041557074200029,1.430092287315344,2.770561990219609,5.682853192390282
277,1456704186160757,5.7936814764852915,8.74058684559095,8.198181521470302,2.5610195542199756,1.691921286758618,1.41051531981995,2.7257975305578372,5.570594818487973
278,1456704186175263,5.747551661327253,8.737019541213057,8.337712744365989,2.587675863974249,1.677524693337289,1.3862321161944757,2.6721737341195744,5.4524090800358405
279,1456704186175263,5.674830352282681,8.706508128628524,8.458052028397072,2.6081164635528746,1.661237796930596,1.3579329917854261,2.6097083975486575,5.329977098918124
280,1456704186176263,5.576266784738371,8.652016203200063,8.558348958638412,2.622427749646794,1.643392621773942,1.3264123571556925,2.538640330062775,5.205015061829234
281,1456704186176263,5.453327615024173,8.577249061860105,8.638362501769828,2.6309426866108705,1.6243849216832829,1.2925500969326846,2.4594363757631443,5.0792363550972555
282,1456704186190304,5.308202274842469,8.48655737925625,8.698491477138479,2.6342566593781482,1.6046778811448403,1.257291594254643,2.372794167884352,4.954319738689495
283,1456704186190304,5.14379192320703,8.384815543175767,8.739786898624358,2.6332362169438204,1.584805376593438,1.2216269299216387,2.2796408372856907,4.831884310581656
284,1456704186198270,4.963681386991276,8.277278220213605,8.76394413871204,2.6290193521406775,1.5653741719064627,1.186569700979521,2.1811277669019216,4.7134713035294755
285,1456704186198270,4.772093733888246,8.169420146524988,8.773274021006495,2.6230061957084176,1.5470643212182174,1.153135833566821,2.078621281037344,4.600532368030969
286,1456704186212266,4.573828032685145,8.066765621277344,8.770653347096768,2.616839338096684,1.5306269232974203,1.1223227100176734,1.9736890601452228,4.4944238470128495
287,1456704186212266,4.374181882691708,7.97471522828637,8.75945653779125,2.6123734213923933,1.516878348985128,1.0950889004263666,1.8680822245826068,4.396406456835837
288,1456704186220266,4.178860734052214,7.89837742750359,8.743470468906825,2.6116340967458878,1.5066902456283324,1.0723347898130784,1.763713334257619,4.307649652955958
289,1456704186220266,3.993875841255335,7.842411778717132,8.72679422812082,2.6167668008455562,1.5009749411285584,1.054884414879014,1.6626307486786325,4.229239762934104
290,1456704186235266,3.8254324154187556,7.810888998464599,8.71372508025968,2.629976047860011,1.50066618853842,1.0434688506449492,1.5669897760606748,4.162190737402599
291,1456704186235266,3.6798095063182448,7.807171244836291,8.708632104410613,2.6534562511733717,1.5066954807850303,1.038711491293078,1.479020949259122,4.107456199618592
292,1456704186236267,3.563233297125697,7.833814471118995,8.715819849763083,2.689315704002074,1.5199644758588138,1.0411155274829071,1.4009957582166275,4.065941527995081
293,1456704186236267,3.4817457133293415,7.892493786334953,8.739385347787321,2.7394962014101525,1.5413143971096057,1.0510538326019663,1.3351902296785767,4.038515034299489
294,1456704186250267,3.4410704854508074,7.9839524776623225,8.78307230341721,2.8056915569956153,1.5714935443462623,1.0687613604130557,1.2838467699823661,4.026017736969476
295,1456704186250267,3.446478965654666,8.107975228228938,8.850126389268622,2.8892686998991133,1.6111242358146864,1.0943300683243642,1.2491346321011534,4.029271528551203
296,1456704186258777,3.5026579818801724,8.263385636851545,8.943155922650494,2.991195107654307,1.660670597625073,1.1277063439985366,1.2331092841462932,4.049085569162735
297,1456704186258777,3.6135819127308926,8.44806728999332,9.06400306599875,3.1119761224293243,1.7204086286299134,1.1686909255024538,1.237670943240621,4.086260527422304
298,1456704186272297,3.7823912125826693,8.659006625687242,9.213631642498525,3.2516052895325296,1.7903999330932985,1.2169413452575377,1.2645226661882079,4.141589940057084
299,1456704186272297,4.01127989179687,8.89235522034332,9.392038189330437,3.4095303141272826,1.8704704883206624,1.2719769835048467,1.315128620324628,4.215857629105775
300,1456704186280292,4.301394812513272,9.143509437513007,9.598192740708887,3.584636599532287,1.96019578992335,1.3331868649311398,1.3906733906114421,4.309829993525176
301,1456704186280292,4.65274993291859,9.40720650702224,9.830014904873034,3.7752496320803592,2.0588936082923075,1.3998403194378215,1.492023357407427,4.424242165060206
302,1456704186295293,5.064158785979693,9.677637138587457,10.084389011415139,3.9791567671945756,2.1656253366695437,1.4711005344379842,1.6196913179039591,4.5597773790145535
303,1456704186295293,5.533188530301853,9.948574782548775,10.357219687902367,4.193648309697035,2.279206540305306,1.5460409076239885,1.773805633421738,4.7170393769796854
304,1456704186296294,6.056138902572146,10.213520639786534,10.643526655977222,4.415577145723287,2.3982268963449958,1.623664017012769,1.9540852397949153,4.896518396656397
305,1456704186296294,6.628049398959405,10.465862240341417,10.93757523169264,4.641435493760372,2.5210792981719776,1.7029229246658988,2.1598218366246953,5.098552495211979
306,1456704186310294,7.242737941879386,10.699042409826788,11.233037201791705,4.867446576843014,2.645997501163094,1.7827443500881976,2.389870477138368,5.3232873496656685
307,1456704186310294,7.892873846969632,10.90673472108963,11.523175609099749,5.089668233081142,2.77110128626215,1.8620529804672294,2.642649618670175,5.570638645369849
308,1456704186325300,8.57008682235497,11.083020900074303,11.801046614448738,5.304104761654565,2.8944476888300605,1.939795913773725,2.9161514530874935,5.840261257589481
309,1456704186325300,9.265112046090069,11.222565112891024,12.059711706977916,5.506822762474097,3.014086416762876,2.0149660826501217,3.2079630113830233,6.131528747279253
310,1456704186332300,9.967969409880808,11.32077959865378,12.292453467303488,5.694066465249605,3.128117232640296,2.0866235592351376,3.515298158556153,6.4435255866830845
311,1456704186332300,10.66817325576933,11.37397548023948,12.492987633008276,5.862367988748615,3.234746802462831,2.1539138825507878,3.8350402401486905,6.775053226995694
312,1456704186340296,11.35496773090753,11.379491779708959,12.655664008758295,6.008647981718259,3.3323422962234295,2.2160829205352006,4.163794872308997,7.124649651097798
313,1456704186340296,12.017582220188988,11.335795441378652,12.775649414445018,6.1303022797240985,3.4194789934642182,2.2724882083605698,4.497952123863078,7.4906203945416125
314,1456704186355821,12.645500823508856,11.242546312500902,12.849086972651575,6.225270863687635,3.494979515241658,2.322607088368894,4.833756963133323,7.871077264433466
315,1456704186355821,13.228739166621065,11.10062335838742,12.87322681511956,6.29208655694153,3.5579430509090417,2.3660421804421756,5.167386286975177,8.263979554077041
316,1456704186356821,13.758120797839572,10.912111058704971,12.846523823061661,6.329902265927129,3.607763778697111,2.4025246716956725,5.495030283967689,8.667172107039567
317,1456704186356821,14.225544039888403,10.680247360240164,12.768698966384353,6.338496963440183,3.644138355622657,2.431915688265587,5.812975473175159,9.078415462429286
318,1456704186370378,14.62422859925938,10.409336533198028,12.640762147604262,6.3182619686609724,3.66706285803815,2.45420569004403,6.117686422947906,9.49540498406924
319,1456704186370378,14.948929665479914,10.104631734001908,12.464995541710124,6.270170132153996,3.676819927613291,2.4695114688748627,6.405882691748401,9.91577737668934
320,1456704186378343,15.196105937091005,9.772193037347856,12.24489713134195,6.195730901866064,3.673957091503415,2.478070030631306,6.674606981425507,10.337103985055375
321,1456704186378343,15.364027753746154,9.41872706452191,11.985084979879732,6.096933899216784,3.6592572879852265,2.4802285937670123,6.921280217580222,10.756871332121984
322,1456704186392344,15.452813564180028,9.051413885703987,11.69116395200712,5.976182998731935,3.6337026587580117,2.4764302691022997,7.1437396549483765,11.17245109462832
323,1456704186392344,15.464388216885629,8.677725705295115,11.369557849590636,5.836222442917188,3.5984327961752247,2.4671955911740313,7.340257243975929,11.581063880625901
324,1456704186400339,15.40236433080907,8.305240604290447,11.02731145881906,5.680056466589672,3.554698918809793,2.4531007177446185,7.5095372484768665,11.97974277190542
325,1456704186400339,15.271855826923996,7.941454080236856,10.671869180334632,5.510864280744682,3.503815866572915,2.4347536349395873,7.650694219737867,12.365302939224895
326,1456704186415345,15.079237997313701,7.593591444712312,10.310839215926569,5.331912859734252,3.447114177547805,2.412769991807085,7.763214473096176,12.734323016557605
327,1456704186415345,14.83187051891574,7.268424797608933,9.951753628263543,5.146470396241621,3.385894585416148,2.3877501581858276,7.8469057299036065,13.083143070671667
328,1456704186416340,14.537799674674961,6.972098832982085,9.601834732010431,4.957723341839137,3.3213870219902284,2.360258810209211,7.901840500637473,13.407883221281114
329,1456704186416340,14.205454993067416,6.709970084586291,9.267777773542496,4.768699770251535,3.2547158246813965,2.3308080095280928,7.928299223121713,13.704486043085442
330,1456704186430341,13.843354016450492,6.486464417086493,8.95555894472229,4.582201533764495,3.1868724841341325,2.29984451986484,7.926719042857919,13.968784646814996
331,1456704186430341,13.459827006079536,6.304957551376818,8.670276276828895,4.4007473064953055,3.118696887467036,2.267741949155166,7.897653301958329,14.19659683830449
332,1456704186438346,13.06277129705715,6.167683157085166,8.41602894473267,4.2265280807858625,3.0508675484107277,2.2347980586442815,7.84174552489679,14.383843941253366
333,1456704186438346,12.659442963849433,6.07567254907441,8.195838297922448,4.061376059018062,2.9839007850166617,2.2012371992690927,7.759720354856742,14.52669052213649
334,1456704186452347,12.256291356056458,6.028729243582777,8.011611698263595,3.906747233008677,2.918158252926181,2.1672174187796327,7.6523925790580964,14.621698392034563
335,1456704186452347,11.858839732952694,6.0254405459030025,7.8641480438819285,3.763717291364766,2.853861683800471,2.1328414150478867,7.520693800231037,14.665985484632882
336,1456704186461092,11.471612829089912,6.063227011105501,7.753181870594762,3.6329898525634947,2.7911131669646925,2.0981702116256344,7.36571426314872,14.657378513993583
337,1456704186461092,11.098110097668425,6.138429174925409,7.677461353277152,3.514915425455045,2.7299189513562,2.0632382178644257,7.188755060596944,14.594548436282462
338,1456704186475552,10.740821687376148,6.24642958032752,7.634854398237326,3.4095190232529458,2.670214588018116,2.028068223520579,6.991384025679933,14.477119640968459
339,1456704186475552,10.40128259850438,6.381806947022975,7.622476234223237,3.316534086522772,2.6118892683644184,1.9926848707013223,6.775487706912704,14.305746665153595
340,1456704186476552,10.080158695711576,6.538518278008135,7.636831504068151,3.2354403430376713,2.5548074620724632,1.9571252962258707,6.543312202350505,14.082154922828092
341,1456704186476552,9.7773565591153,6.710103553428576,7.67396398994706,3.165503431509457,2.4988264741066493,1.9214460258606225,6.297487074809695,13.809143706689005
342,1456704186490771,9.492148053035242,6.889906246745525,7.729607896502787,3.1058145490118787,2.4438092775139673,1.885725797360787,6.041028605694901,13.490550720244538
343,1456704186490771,9.223300474376416,7.0713012660165715,7.7993359792991335,3.055329045760187,2.3896327261393093,1.8500646088925183,5.777320848744365,13.131178557254557
344,1456704186497765,8.969204528117432,7.247920495772306,7.878701315181449,3.0129035904455,2.336191757601953,1.8145797379090924,5.510074975431893,12.736685531146218
345,1456704186497765,8.727994930505462,7.413865547633473,7.963370527303077,2.9773319372507165,2.2834004003405184,1.7793996829542613,5.243268966395062,12.313445653164829
346,1456704186512555,8.497661139863919,7.563898026908388,8.049246363512882,2.94737934611355,2.2311904614532017,1.7446570048558991,4.981070709386628,11.868384385215284
347,1456704186512555,8.276147533670926,7.693599443992569,8.132576806048,2.9218155591592274,2.1795088271834104,1.7104809774879641,4.727748233177235,11.408797678846406
348,1456704186520843,8.061443187434895,7.799495394030907,8.210047018387353,2.8994461212459686,2.1283143078818045,1.676990855628754,4.487571380281252,10.942162136023821
349,1456704186520843,7.851661778248358,7.879141241921095,8.278850200224657,2.8791417560579253,2.077574831501602,1.6442904318749443,4.264709589147631,10.47594423078837
350,1456704186535857,7.645112343575072,7.931168637900245,8.336734269626849,2.8598654097214475,2.027265564242817,1.6124643693818943,4.06313032067377,10.017416334429882
351,1456704186535857,7.440361661711264,7.9552934654963465,8.38202302706121,2.8406964267511032,1.9773682660532668,1.5815765756872302,3.886502023338592,9.573486514061894
352,1456704186543860,7.236288766573425,7.9522867448658205,8.413612330627021,2.820851140942787,1.927871896011743,1.5516706750577822,3.738104696606509,9.15054751969584
353,1456704186543860,7.032131482339704,7.923911190908899,8.430943161665247,2.7996990348568698,1.8787742394068423,1.5227724631019939,3.620750324615998,8.754348197285552
354,1456704186550559,6.827523968734933,7.872827495524035,8.433954345285192,2.7767737037436095,1.8300842503346488,1.4948940493833598,3.5367147578211604,8.389888429833304
355,1456704186550559,6.622523382354478,7.802475359999839,8.423018597789609,2.7517782298100273,1.7818249075902153,1.4680391816325096,3.4876820311920094,8.061337330290655
356,1456704186557569,6.417623221804351,7.716934506405926,8.398866562293444,2.7245850915121053,1.7340365211279074,1.44220904085492,3.474701670442349,7.771973873197239
357,1456704186557569,6.213751048511799,7.620770651076173,8.362504101711089,2.6952311230453003,1.6867804243559799,1.417407688343492,3.498159260096861,7.5241489179900105
358,1456704186572882,6.012249018709738,7.518871209181528,8.315127995813114,2.663908106242005,1.6401427989167634,1.3936463836926067,3.557760372552703,7.319267247488716
359,1456704186572882,5.814836544281121,7.416275404421308,8.258044424488675,2.630949363641619,1.5942381246560697,1.37094614980645,3.6525278325633996,7.157788034416906
360,1456704186580865,5.623555195688016,7.318003329030234,8.192593540986065,2.596812481274012,1.5492116248814551,1.3493381878137511,3.7808122022525072,7.039242418406971
361,1456704186580865,5.4406970306764295,7.228888398068574,8.120082362189551,2.5620582686391056,1.5052401839412042,1.328862027217498,3.940315313998209,6.962267501474295
362,1456704186595865,5.268719036707295,7.153417726632982,8.041727323349166,2.5273262892623847,1.462531438855435,1.3095616187900423,4.12812665953583,6.924656526834604
363,1456704186595865,5.110147784501041,7.095585076380694,7.958607264698754,2.493307618443305,1.4213209060857326,1.2914798719204619,4.340772479184235,6.923424964615133
364,1456704186603865,4.967479121400304,7.058760822273566,7.871627424541324,2.460715748839871,1.3818670723759225,1.2746523096824645,4.5742774290160115,6.954891869113068
365,1456704186603865,4.84307769439752,7.045582828560925,7.7814952034512235,2.430256675047121,1.3444444656436565,1.2591005207600157,4.824238588437915,7.014775567431437
366,1456704186619208,4.739080502376767,7.057871519581091,7.6887087410607915,2.4025991443040025,1.309334883717353,1.2448259837381472,5.08591120455794,7.098302604840535
367,1456704186619208,4.657307820049489,7.096572028722659,7.59355926497589,2.378345977833123,1.2768171451368702,1.2318047350648742,5.354305015152134,7.200328737038409
368,1456704186619867,4.599184032628855,7.16172591502321,7.4961476365305355,2.35800737457399,1.247155882404538,1.219983310712338,5.624289458073531,7.3154703506106245
369,1456704186619867,4.565670433161,7.252474153334785,7.396414827307087,2.3419772041463442,1.220590019707441,1.2092763901143129,5.890705784473891,7.438243788861195
370,1456704186633210,4.5572118757481075,7.3670917812008705,7.294185350752726,2.3305133596729646,1.1973216637453246,1.199566539205486,6.148484057609312,7.563208709062506
371,1456704186633210,4.5736990700419415,7.503052929736753,7.189221773832965,2.3237231774290277,1.1775061542984064,1.1907063289667852,6.392762969133557,7.685110257855067
372,1456704186640874,4.614447972334114,7.657123298619794,7.081287336979881,2.321554747383928,1.1612439509962273,1.1825228846184936,6.619010075027133,7.799014101495964
373,1456704186640874,4.678197240348473,7.82547565762494,6.970212744079105,2.3237946923660115,1.1485749112514543,1.174824633558931,6.823139454371012,7.900428329663593
374,1456704186656176,4.76312432406636,8.00382270223219,6.855962608011239,2.3300727058066184,1.139475386893657,1.167409727649632,7.001623095668655,7.985406667570314
375,1456704186656176,4.866880464541955,8.18756053246558,6.738696805196583,2.3398728062200553,1.1338584268760303,1.16007538529528,7.15159162087171,8.050628272936617
376,1456704186663678,4.98664439404235,8.37191528754787,6.618822042797751,2.3525509094762667,1.1315771787015494,1.152627300614137,7.270919395641435,8.093451164715177
377,1456704186663678,5.119193694813838,8.55208548707721,6.497029434991578,2.367357970817219,1.1324313112513844,1.1448883479928156,7.358288959780428,8.111939030791426
378,1456704186679007,5.260991635009991,8.723373804890242,6.3743149402391985,2.383467618124783,1.1361759599223118,1.1367060386248706,7.413230275531369,8.104863648816998
379,1456704186679007,5.408286004133009,8.881303998963833,6.2519809496567245,2.4000068787594704,1.1425323835302779,1.1279584356217027,7.436131378455456,8.071686272338457
380,1456704186680008,5.557215245781369,9.021720595884894,6.131618819749533,2.416088333146156,1.1511993227510504,1.1185583910086652,7.428218420704786,8.012521236385703
381,1456704186680008,5.703916450765867,9.140870282490898,6.015073432734787,2.430841926868416,1.1618640737942485,1.1084560458181456,7.391504918127214,7.9280847103004115
382,1456704186693230,5.844629900973954,9.235465270175979,5.904391732648037,2.4434448368753885,1.1742125639931122,1.0976396284820122,7.328712236409867,7.819631495916164
383,1456704186693230,5.9757957092885094,9.302730447920302,5.801757661072468,2.4531481660256653,1.187938109825644,1.0861347194087982,7.243165452915764,7.688882889961387
384,1456704186701231,6.094139164893626,9.340437405257187,5.7094163332160175,2.4592996626923465,1.2027488499508783,1.074002247527991,7.138670091188012,7.53794874043525
385,1456704186701231,6.196742439081579,9.34692875011385,5.629590859457764,2.4613619734829975,1.2183739495416872,1.061335501035552,7.019375739657869,7.3692469594556735
386,1456704186716009,6.281101469649069,9.321135485320388,5.564395732624496,2.458926084133295,1.234568573830807,1.0482564067244922,6.88963264950218,7.185423779105889
387,1456704186716009,6.345167977821923,9.262588991857443,5.515750883683681,2.451719648109446,1.2511174197175512,1.0349112983855404,6.753847438843998,6.989277638142595
388,1456704186724233,6.387377177785195,9.17142808231316,5.485300341882816,2.4396099853980404,1.2678364020737818,1.0214663390324739,6.616343957173104,6.783688741438565
389,1456704186724233,6.4066616586831815,9.04840107496432,5.474339064991213,2.4226017695762003,1.2845720443503874,1.0081026670222828,6.4812349261667475,6.571555442906765
390,1456704186739011,6.402451634926104,8.894862675585427,5.483750953658444,2.4008297722172256,1.3011982810665912,0.9950112314504077,6.352309119943541,6.355738033182893
391,1456704186739011,6.374661845680603,8.712765009970724,5.513960243704539,2.3745473325457147,1.3176106954097768,0.9823872282461221,6.2329377894865585,6.139010256227886
392,1456704186740213,6.323665953763499,8.504641119750707,5.564897497648118,2.344111362869333,1.3337185979338888,0.9704240964018755,6.1260030101412095,5.924018693410494
393,1456704186740213,6.250260087786774,8.273577990854436,5.6359806842094775,2.3099647533428938,1.3494357249149025,0.9593071757158385,6.033849667291242,5.713249826129556
394,1456704186753012,6.15561788946914,8.023175455694528,5.726111547138061,2.2726170999471584,1.3646706031588265,0.9492072875926025,5.9582617441234325,5.509004058922478
395,1456704186753012,6.041239798682742,7.757487651876699,5.8336872935441475,2.2326247162330186,1.3793177027777503,0.9402746018582774,5.900462393668304,5.313375386292535
396,1456704186761022,5.908899149278712,7.48094524723638,5.9566271526940815,2.1905708225901677,1.393250395374361,0.9326331777213779,5.861136164502202,5.128234995741191
397,1456704186761022,5.760587153033156,7.198258973134885,6.092412674684321,2.1470466746081454,1.4063165514409437,0.926376540967307,5.840470940447001,4.955217190243527
398,1456704186776317,5.598458513421564,6.9143073797405314,6.238140214616079,2.102634301951222,1.4183373974588185,0.9215646019915797,5.838216629220618,4.795706615737614
399,1456704186776317,5.424779423312527,6.634013464499671,6.39058406279273,2.057891480682887,1.429109981611314,0.9182221327885459,5.853757085711821,4.650826548635266
400,1456704186783547,5.2418796813236765,6.362215797191734,6.546268958315317,2.0133394620671714,1.4384132545067791,0.9163389073546991,5.8861909267006025,4.5214285201120115
401,1456704186783547,5.0521101578305085,6.103540153852886,6.701551093150415,1.969453807635326,1.4460174137581359,0.915871476366037,5.934415913890302,4.4080837979504475
402,1456704186798380,4.857805849271469,5.862277537900229,6.852707063280065,1.926658509178482,1.4516958723774749,0.91674640081129,5.997210840288677,4.3110774754150105
403,1456704186798380,4.661253743369351,5.642273876828206,6.996030315174655,1.8853234553051854,1.4552390370213473,0.9188646300538462,6.0733087215555095,4.230406218066465
404,1456704186799318,4.464664297966797,5.446835891008412,7.127934217254001,1.8457651997337123,1.4564690091439394,0.922106621000131,6.161455880377204,4.1657808957348
405,1456704186799318,4.270145777381549,5.278656771312481,7.2450599577768795,1.808250805667922,1.455254301682667,0.9263377920241544,6.260453306361825,4.116635169490381
406,1456704186812319,4.079681533485419,5.139764230050338,7.344386280771907,1.773004262284898,1.4515236417015263,0.931413970607891,6.369179009208241,4.082140627008812
407,1456704186812319,3.8951108038863542,5.031492122564472,7.4233368907417425,1.7402146689130154,1.4452778738986023,0.9371865710926327,6.486592172265434,4.061228491845587
408,1456704186820538,3.718113512382508,4.954475374654842,7.479880323786628,1.7100451701940589,1.436598923953169,0.9435072919256606,6.611721352517386,4.052617486406747
409,1456704186820538,3.550199272238639,4.908666686030088,7.51261621164924,1.6826415626884423,1.4256548128743776,0.9502321576788049,6.743639889323926,4.054847109912609
410,1456704186835326,3.392700575472772,4.893372556822872,7.520841288238696,1.658139580759474,1.4126999092017742,0.9572247699455708,6.88143226322675,4.066315301297981
411,1456704186835326,3.2467699210165235,4.907305572569392,7.504588755195669,1.6366700801542418,1.39806996896656,0.9643586670815645,7.024155392336161,4.085319212113364
412,1456704186844321,3.1133803423287816,4.948649498598685,7.464636388312322,1.6183616156150835,1.382171960322823,0.9715186997912532,7.1707987802551445,4.110097724039811
413,1456704186844321,2.993328559703235,5.015133546391127,7.402481925905665,1.6033401857441243,1.3654691004403865,0.9786013139648856,7.320247140535844,4.138874388246707
414,1456704186858877,2.8872398716001095,5.104112245686222,7.320287759144012,1.5917261792219624,1.348461929110724,0.9855136580150441,7.471248653810499,4.1698994764371
415,1456704186858877,2.7955738854281735,5.212647782269085,7.220799536879184,1.5836288208264977,1.3316666130961,0.9921715602333738,7.6223912953154755,4.201489785236209
416,1456704186859877,2.7186302935387174,5.337592361365627,7.107244500078499,1.5791386427139535,1.3155919299707615,0.9984966239843898,7.772088712454708,4.232064966854252
417,1456704186859877,2.656554190569769,5.475668816342833,6.983215431752635,1.57831862963124,1.3007164233783504,1.0044128578689164,7.918576121244172,4.2601796528934095
418,1456704186872350,2.609340895282478,5.623548091980866,6.852545637196562,1.581194733959859,1.2874670905397223,1.0098433173696721,8.059915903553764,4.28455126397792
419,1456704186872350,2.576840764500539,5.777922535419558,6.719179881647102,1.5877465107538573,1.276200768130582,1.0147072015426553,8.194012300829614,4.30408373312648
420,1456704186880349,2.558764879701665,5.935574366257196,6.587045953011655,1.5978986790727012,1.2671891772806274,1.0189177788550752,8.318634944765932,4.317887286761335
421,1456704186880349,2.5546925904820514,6.093439276899052,6.459931381101699,1.6115143890642099,1.2606083644010129,1.0223814285441652,8.431451680297108,4.325294143064281
422,1456704186895564,2.5640816932631973,6.248665627172685,6.341369554716885,1.6283908342644995,1.2565330191361452,1.0249979696946185,8.530071627441405,4.325869749085464
423,1456704186895564,2.5862815955991416,6.398669890440599,6.234538898235272,1.6482576458629599,1.2549358631507535,1.0266623212672874,8.612099239228886,4.319419046069198
424,1456704186903562,2.620549264543721,6.541188731925915,6.142177997815582,1.6707782768388624,1.255691993369949,1.0272674183343968,8.675199250883132,4.305987156109554
425,1456704186903562,2.6660672045763034,6.674327407338479,6.066518796917074,1.6955543307474397,1.2585877536659251,1.0267082143698858,8.717171211948214,4.285853807089911
426,1456704186918565,2.7219623346104407,6.796603270601069,6.009239324029065,1.7221325452790939,1.2633334245727885,1.0248865194207188,8.736031031231501,4.2595208862566825
427,1456704186918565,2.7873245410129917,6.906982324757385,5.971436794628307,1.750013961052066,1.2695787791214737,1.021716341684285,8.7300956845568,4.227692863377382
428,1456704186919351,2.861223769745729,7.004906148066223,5.953621175892718,1.7786647056077627,1.2769303887811634,1.017129316749578,8.698065932437595,4.191250405345602
429,1456704186919351,2.942724577336263,7.090306231978965,5.9557283592168435,1.807527778484444,1.2849695275004336,1.0110797692464784,8.639100774211196,4.1512181521897995
430,1456704186932565,3.03089700960569,7.163602708875682,5.977151034075,1.8360352179166999,1.2932696153189653,1.0035489914700033,8.552876854560562,4.108728208515787
431,1456704186932565,3.1248226387371165,7.225684658709612,6.016784341236153,1.863620048817984,1.301412301854103,0.994548407354765,8.439626736580113,4.064981342365892
432,1456704186940358,3.2235948056433643,7.277869834219921,6.073082593671675,1.8897274598248683,1.3090014830729673,0.9841213695179861,8.300152247072702,4.021208113790928
433,1456704186940358,3.3263128167241085,7.321842816941666,6.144123034919973,1.9138247978363903,1.315674825655078,0.9723434342901675,8.135812360355416,3.978632166618009
434,1456704186956160,3.432070992696839,7.3595722588173365,6.227672972485715,1.9354102457654196,1.3211127628016173,0.9593211107699631,7.948487859467069,3.938437730316093
435,1456704186956160,3.5399446195966564,7.393209866073717,6.321257595960844,1.9540203569940475,1.3250452973355007,0.9451892373254427,7.74052648671913,3.901742978560634
436,1456704186964076,3.6489754932805534,7.424975820565025,6.422226854294187,1.9692367980535972,1.327257130552239,0.9301072240114421,7.514672921539511,3.8695802612645207
437,1456704186964076,3.7581597282508037,7.457036805990184,6.527820403427671,1.9806926946429446,1.327591596771101,0.9142544177897006,7.2739883369805325,3.8428834416677455
438,1456704186978910,3.8664400143690445,7.491383306307648,6.635229824959509,1.9880789764957096,1.3259537247761155,0.8978248675047568,7.021764462587911,3.822481751397904
439,1456704186978910,3.9727037945598997,7.529712617566327,6.741657417898563,1.9911510682569171,1.322312554522295,0.8810218118412007,6.761436770411842,3.8090988150382015
440,1456704186979801,4.075788088344972,7.573323570902949,6.844371156573344,1.9897361208367166,1.3167026365918655,0.8640522504728707,6.49650067604147,3.803354898203582
441,1456704186979801,4.1744910913704745,7.623028378692489,6.9407559140447255,1.9837407508210596,1.309224460112812,0.8471219504256869,6.2304337507289524,3.805770155252257
442,1456704186993065,4.26759038408316,7.67908602863476,7.028361578151671,1.9731590194119335,1.3000434391978593,0.8304311724380496,5.966625957904426,3.816766793829443
443,1456704186993065,4.353867497816535,7.741160299052802,7.10494887525068,1.9580801508381867,1.2893870694654939,0.8141712731485262,5.708318843583582,3.8366686158806944
444,1456704187001032,4.432138392778863,7.808304189468716,7.168533325611589,1.9386952724077289,1.2775399547308919,0.7985221670647016,5.458553568070379,3.8656972415586743
445,1456704187001032,4.501288843850266,7.878971677642809,7.217427002521892,1.9153023042769537,1.2648365947297286,0.783650467659181,5.2201269494010045,3.903965223432884
446,1456704187016068,4.5603128837380655,7.951057068480428,7.250277130600442,1.8883080805962134,1.251652059672457,0.7697080278312142,4.995554427707921,3.9514668015342194
447,1456704187016068,4.608351661726339,8.02196135978003,7.266100258588784,1.858226856458584,1.238390843455557,0.7568306033930305,4.787038896043133,4.008067042317391
448,1456704187024141,4.644729720870621,8.08868379716823,7.264310665758075,1.8256745640713103,1.225474224000693,0.7451364739530278,4.596444444471148,4.073489904850711
449,1456704187024141,4.668986027157977,8.147935283081576,7.244741675435818,1.7913585352827415,1.213326435687142,0.7347250354842235,4.425274172373156,4.147305946733267
450,1456704187038867,4.6808980106754134,8.196268814342021,7.207658601305015,1.7560628253359114,1.2023599888808443,0.7256755483911349,4.274651452079924,4.228921036494636
451,1456704187038867,4.680497863292229,8.230220857821333,7.153762032605523,1.7206296066224391,1.1929605816110185,0.7180463099079193,4.145304508138103,4.317568150795369
452,1456704187039806,4.668080836007608,8.246456825940097,7.084180007377634,1.6859372832418416,1.1854721691821801,0.71187450201665,4.037554947589499,4.41230460663125
453,1456704187039806,4.644205348222701,8.241913956991949,7.000447615506459,1.6528760786714007,1.180182821657478,0.7071768726145136,3.951311775204763,4.512016750820537
454,1456704187052810,4.609684841007174,8.213935934937641,6.904473184155756,1.6223219742838517,1.1773120094406222,0.7039512707060579,3.88607306902833,4.615433388933958
455,1456704187052810,4.56557166565262,8.16039488558568,6.798491431025666,1.5951100439323147,1.1769999474490682,0.702178907791516,3.8409375439137867,4.721148375217706
456,1456704187061330,4.513133621851172,8.07979726147846,6.685005271001632,1.5720083595811771,1.179299587577185,0.7018270968657789,3.8146277424539052,4.827651954178821
457,1456704187061330,4.4538238058020765,7.971370333249969,6.566718858973835,1.5536936456916541,1.1841717306584396,0.7028521596814171,3.8055258633306823,4.93336962097212
458,1456704187076182,4.389244363219753,7.835125723518633,6.44646489737302,1.540729725324282,1.1914835339124015,0.7052022011417551,3.8117224381950474,5.036706442421845
459,1456704187076182,4.321104912248262,7.671896160374918,6.327129310449731,1.5335495833458548,1.2010104953997305,0.7088195126960259,3.8310771935450982,5.136094095764296
460,1456704187084177,4.2511768741203655,7.483342183630694,6.211576084896769,1.5324416213253464,1.2124418788891724,0.7136424476118264,3.8612904916689206,5.230037543457975
461,1456704187084177,4.181245429226987,7.271927427441511,6.1025744782511815,1.5375404276444748,1.225389485034498,0.7196066679714099,3.899982780719011,5.31715835673545
462,1456704187099182,4.113060975693511,7.040863893865045,6.002730217431983,1.5488221823300747,1.2393995965164144,0.7266456868764444,3.944778492632835,5.39623213026535
463,1456704187099182,4.0482917531644524,6.794031194771275,5.9144221357301126,1.566104701977049,1.2539677878836764,0.734690649293091,3.9933898079561554,5.466217974660125
464,1456704187099841,3.9884789198598565,6.535875223413165,5.839746005653878,1.589052086280401,1.2685561298068946,0.7436693413499628,4.043694828261893,5.526278499015404
465,1456704187099841,3.9349950778610436,6.271292020516264,5.780467689794646,1.617183876948923,1.2826121652337608,0.7535044893228618,4.093804355091816,5.575788939213294
466,1456704187112843,3.889007115975279,6.00550208897329,5.737987561417256,1.649888519021661,1.2955888860657547,0.7641114850643272,4.1421121010664415,5.614334437453257
467,1456704187112843,3.85144423505042,5.743919550108061,5.713317299325421,1.6864407084517945,1.306964788671399,0.7753957514599996,4.187324847051654,5.641695411113646
468,1456704187121184,3.8229720536365344,5.492019678437885,5.707069093515328,1.7260219453061236,1.3162629603473062,0.7872500496356547,4.228471368201095,5.657822560223415
469,1456704187121184,3.8039736879185937,5.255207637253093,5.719456569560932,1.767743370250203,1.323068092831423,0.7995520968310487,4.264891206654472,5.662804743644827
470,1456704187136183,3.7945386112161827,5.038690671794232,5.750306491060552,1.8106698445456644,1.3270403811856077,0.8121628409735954,4.296206106834403,5.656833887681211
471,1456704187136183,3.7944599047169625,4.847355622584259,5.799080220901862,1.8538442744982422,1.3279254875381683,0.8249256099368822,4.322277987433751,5.640171005880782
472,1456704187143884,3.803240221730329,4.6856533852011095,5.864903647399893,1.8963113286459663,1.3255601450681118,0.8376661983596174,4.343157725782913,5.613116631514615
473,1456704187143884,3.82010644653974,4.557491785314346,5.946603753675369,1.9371398715303831,1.319873493469088,0.8501938639644883,4.359028965420282,5.575987921530122
474,1456704187158663,3.8440327014272375,4.466138225577215,6.04274944931917,1.9754435847892162,1.3108847303844886,0.8623031866205606,4.370150912238741,5.529103663838857
475,1456704187158663,3.873771135251457,4.414133415031493,6.1516939713179575,2.010399355866691,1.2986979751268495,0.8737767295529307,4.376803830879759,5.472777608108015
476,1456704187159655,3.9078898980303647,4.40321756632447,6.27161639680692,2.0412631234542253,1.2834952923568463,0.8843883898229179,4.379240658316279,5.407320010482066
477,1456704187159655,3.9448177874146744,4.434270767840884,6.4005607484356055,2.0673830174003434,1.2655286409911366,0.8939072764464094,4.377647725331927,5.333046863508272
478,1456704187173217,3.982894976530251,4.507269808856905,6.536472417697838,2.0882098185559848,1.2451111955800134,0.9021019773320222,4.372116997411368,5.250295726009122
479,1456704187173217,4.020428810529501,4.621264197613772,6.677232462405615,2.103304931619354,1.2226081679624967,0.9087451638320991,4.362631504253897,5.159446314967638
480,1456704187180172,4.05575297052325,4.774374020316324,6.820690530444027,2.1123461413975018,1.198427073405631,0.9136185516145405,4.349064674546078,5.0609432255355635
481,1456704187180172,4.087287563685527,4.963811583234885,6.964697077059884,2.115131406419926,1.1730074070505558,0.9165182296608315,4.331193120543849,4.955317590899756
482,1456704187195472,4.113597134955818,5.1859277946328275,7.107135408023168,2.1115808769838957,1.1468098575704317,0.9172602969127454,4.30872112283151,4.843204603674214
483,1456704187195472,4.133443460900688,5.4362833575597,7.245953819339208,2.1017372163862658,1.1203053362989972,0.9156866386170179,4.28131384108379,4.725354904693547
484,1456704187204214,4.145830370956697,5.709744174753278,7.379197719174928,2.08576415964319,1.0939641491079768,0.9116705586230189,4.248635339723088,4.602639566049004
485,1456704187204214,4.150038423133518,6.0005996868330485,7.505041234998881,2.063943149024811,1.068245601397997,0.9051219242307309,4.210387041781355,4.476049793767912
486,1456704187219211,4.145647601914116,6.302701856066497,7.621817396699112,2.036667934661466,1.043588259169433,0.8959915487003494,4.166342338967017,4.346692825562153
487,1456704187219211,4.1325463929407436,6.609621141594965,7.728045401712859,2.004437188293065,1.0204010270326602,0.8842747043784345,4.11637387760846,4.215784918496698
488,1456704187219211,4.110926217138356,6.914814447982722,7.822452854880222,1.9678453312421587,0.9990551649929771,0.8700137966149373,4.060471416756907,4.084641455874165
489,1456704187219211,4.081261579214464,7.211799173272614,7.903990803049951,1.9275718688360648,0.979877351410852,0.8533002474446556,3.998749722800044,3.9546636115849774
490,1456704187233214,4.044277944451083,7.4943274728732145,7.971840309190212,1.8843695836681702,0.96314389916149,0.8342755755953322,3.9314472281901676,3.8273209118436644
491,1456704187233214,4.000910578483323,7.756555616523979,8.025410927770785,1.839052005603711,0.9490762552971095,0.8131316116544071,3.858916918635412,3.7041293848384385
492,1456704187240174,3.952258042672564,7.993204274142412,8.064332888189234,1.7924806406392337,0.9378379842232096,0.7901098134751018,3.7816112384339142,3.586625628710872
493,1456704187240174,3.8995338413789145,8.199705965784279,8.088445483241305,1.7455524547881,0.9295335217198814,0.7654997291876873,3.7000628841449004,3.476337811484805
494,1456704187255735,3.844019125195119,8.372335471025535,8.097784160390848,1.6991880215065926,0.9242090077897196,0.739636717056771,3.614863272397871,3.374755057715994
495,1456704187255735,3.78701864138218,8.508318254935618,8.092568457293403,1.654320560531595,0.921855409602524,0.7128990110002875,3.5266403230988685,3.2832967820963272
496,1456704187264200,3.7298214862540946,8.605911878381587,8.07319238522833,1.6118858889377328,0.9224139626501642,0.685704133180437,3.4360370834797176,3.2032834787901607
497,1456704187264200,3.6736676795873837,8.664456511251768,8.04021818130081,1.572813121377972,0.925783752334988,0.6585045728055112,3.343692555023419,3.1359104105075026
498,1456704187278680,3.6197210797720607,8.68439281681223,7.994373619165376,1.5380158129373231,0.9318310723686949,0.631782632791183,3.250225765847664,3.0822254561777207
499,1456704187278680,3.5690486616755086,8.667247644358032,7.936552378055473,1.5083831699908679,0.9404000444048478,0.6060443971842856,3.156223724958656,3.0431119381851213
500,1456704187279419,3.5226057097780465,8.615589173820991,7.867816215878453,1.4847709876838542,0.951323860633692,0.581812843675051,3.0622335473775593,3.0192766562181608
501,1456704187279419,3.481226103323505,8.532953320434821,7.789396700659965,1.4679920419747194,0.9644359184814363,0.5596201620701287,2.9687588016187263,3.011242836455541
502,1456704187301707,3.445616705841674,8.423743176560839,7.70269309812942,1.4588056704523693,0.9795800903524774,0.5399993373324847,2.8762599817192425,3.01934740282763
503,1456704187301707,3.41635496046554,8.29310380249353,7.609262165966933,1.457906246703573,0.9966194610036351,0.5234750601396871,2.78515887785033,3.043741876398439
504,1456704187302422,3.393889003255967,8.146775729074534,7.510795845436298,1.465910330070296,1.0154430533944143,0.5105540729113605,2.695846395549317,3.0843962163395506
505,1456704187302422,3.378539811199588,7.990931558630903,7.409084704234336,1.4833425088161922,1.0359702522769871,0.5017151325851107,2.608692986750193,3.1411049520901932
506,1456704187315756,3.3705051157204053,7.832000584263865,7.305968009528834,1.510620234398319,1.0581527578349241,0.4973988339379619,2.524060396196765,3.21349498273798
507,1456704187315756,3.369865034376598,7.676486263592895,7.203274144439362,1.5480381382748458,1.081974003012494,0.49799755861995015,2.4423131292079456,3.3010344320318343
508,1456704187323753,3.3765894905836316,7.530781010443799,7.102756620769166,1.5957524099188154,1.107446108519861,0.503845797292416,2.363828143939826,3.4030420056824036
509,1456704187323753,3.3905474533866586,7.400982734773265,7.00603110940205,1.6537658367504664,1.1346046094973328,0.5152110606168064,2.289001767689168,3.518696486457504
510,1456704187338462,3.411517931229495,7.2927181866586785,6.914518264628225,1.721914103079302,1.163501318175226,0.5322855633198667,2.2182534409745207,3.6470462538898785
511,1456704187338462,3.439202601229314,7.21097901409667,6.829396155339933,1.7998539584399256,1.1941957751236505,0.5551788280300792,2.1520262659683,3.7870187865411182
512,1456704187339423,3.4732399577689,7.159976713818851,6.751565103076214,1.8870539342625148,1.2267457817559024,0.5839113149776791,2.0907843904764483,3.9374298498081335
513,1456704187339423,3.5132208603300903,7.143021915828429,6.6816267804767255,1.982788403251886,1.2611974750356345,0.618409170225383,2.0350071976613933,4.096991615796628
514,1456704187352424,3.5587053001175515,7.162431941275625,6.619878490983048,2.0861358755189454,1.2975753049214014,0.6585002309616528,1.9851803741449865,4.264318611601266
515,1456704187352424,3.609240083928716,7.219468873572741,6.5663224929633035,2.1959824334239446,1.3358721638799467,0.7039115194900214,1.9417842710315518,4.437930535694028
516,1456704187360933,3.66437696349021,7.31430893247953,6.520689012571347,2.3110310699691583,1.376039873744828,0.7542685355634249,1.9052803344516576,4.616251859472782
517,1456704187360933,3.723690530759305,7.446042890187211,6.482470389025487,2.4298174080263095,1.4179802895852072,0.8090966622326871,1.8760965130189942,4.797609459924021
518,1456704187375781,3.7867949826336407,7.6127065543927115,6.4509630039157235,2.5507318988979795,1.4615373857979954,0.8678249310054721,1.854612483166392,4.9802306110712005
519,1456704187375781,3.853358675048259,7.8113398992810845,6.425313570639766,2.672048210191541,1.5064907783830583,0.9297922891071642,1.8411455009477182,5.162244027521825
520,1456704187383785,3.9231152900468658,8.038073176149151,6.404566778957642,2.7919571541879753,1.5525511835543666,0.9942564158169949,1.835937774483243,5.34168636713793
521,1456704187383785,3.995870467863583,8.288237983851857,6.387711595505073,2.90860519688811,1.5993583023412083,1.0604050592706378,1.8391463141277848,5.516516000720067
522,1456704187398442,4.071502892052651,8.55650043532849,6.3737235020314555,3.0201363730205917,1.646481537092815,1.1273697991333749,1.8508361237600839,5.684635320493624
523,1456704187398442,4.149959090625765,8.837012263318321,6.361600070895558,3.124736347354403,1.6934238312268761,1.1942420687468742,1.8709773761664015,5.843922676198095
524,1456704187399455,4.231241821920115,9.123574558727453,6.350387947770485,3.2206773479097457,1.7396288516471825,1.2600911836817934,1.8994470054393873,5.9922751667676355
525,1456704187399455,4.315392948373937,9.409808344291806,6.339200294383813,3.3063626453181953,1.784491689861347,1.3239840234414795,1.936035064679131,6.127663543896539
526,1456704187414442,4.4024728285315655,9.689326239602826,6.327224587925519,3.380369155916801,1.8273731478126787,1.3850059188767327,1.9804562233005871,6.2481999512672175
527,1456704187414442,4.492538927889954,9.955899595502073,6.313721383610478,3.4414867274960037,1.8676174561398189,1.4422822413998355,2.032366761781463,6.352218112756579
528,1456704187420669,4.585626358276173,10.203615492670687,6.298015442808615,3.4887528482293324,1.9045730153850529,1.4950001798258845,2.0913872095188,6.4383642471091305
529,1456704187420669,4.681732653801352,10.427018252873486,6.279481424938,3.521481894515648,1.9376155559447956,1.5424301927537216,2.1571303543744476,6.5056957414933985
530,1456704187435708,4.780808564489744,10.62123105991413,6.257526933206512,3.539288447756993,1.9661730095777343,1.5839465990217532,2.2292338515746093,6.553783522022956
531,1456704187435708,4.88275602867752,10.782054912469803,6.231576059208324,3.5421044558972565,1.989751313478352,1.6190467107068445,2.3073961916801635,6.58281299111457
532,1456704187443716,4.987433721675765,10.906043835220718,6.201056610284811,3.5301900018575165,2.007960255618229,1.6473678514878944,2.3914143768447986,6.593677254762802
533,1456704187443716,5.09466973044244,10.990556522104363,6.1653937654058035,3.504137251939808,2.0205383022290264,1.6687015792400879,2.481221289291989,6.588055248295997
534,1456704187457965,5.204280032197504,11.033785359598578,6.124012098152207,3.464866928577571,2.0273751538903815,1.68300445563618,2.576920455675919,6.568466643088325
535,1456704187457965,5.316090566806595,11.034764203180478,6.076347106777964,3.413616494319268,2.0285306152421856,1.6904047332427061,2.6788157863324416,6.538295503308608
536,1456704187465966,5.4299599579633275,10.993356322853005,6.0218668261710295,3.351919288235756,2.024248342972017,1.6912043398961472,2.7874339291259758,6.501775778054752
537,1456704187465966,5.545799693121108,10.910223772490497,5.960103624529598,3.2815742326896182,2.01496324480623,1.6858755973444486,2.903537083938078,6.463933718609394
538,1456704187472980,5.663588897539312,10.786779538073386,5.8906956189082065,3.20460629853171,2.001301665277604,1.675052283989566,3.0281243823987007,6.430484894142067
539,1456704187472980,5.783381403654501,10.625124303411406,5.813436164463631,3.1232183647367666,1.9840738128498483,1.6595149224886472,3.1624201870022253,6.4076864633519035
540,1456704187479980,5.90530340768441,10.42797011396069,5.728328729103846,3.039735346398761,1.9642580759232047,1.6401704972899802,3.3078479540946186,6.402148619482149
541,1456704187479980,6.029540815112712,10.198553319365626,5.635643364271892,2.9565417730704198,1.9429770839168994,1.6180271613951227,3.4659887052982032,6.42061227995427
542,1456704187495176,6.156316448986684,9.94053919100404,5.535969989859458,2.876014604094719,1.9214657656665979,1.5941648308174676,3.6385236150370943,6.469702542076258
543,1456704187495176,6.28585822342472,9.657920897919944,5.430262839684511,2.8004538107583405,1.9010322391896635,1.5697028163284876,3.827160665653575,6.555668792975782
544,1456704187504113,6.41835997914199,9.354915958856202,5.319869887608072,2.7320137835828047,1.8830129791312906,1.5457657507895586,4.0335458131537365,6.684122732052484
545,1456704187504113,6.553937292080497,9.035863449103747,5.2065414186472685,2.672638712128478,1.86872418027214,1.5234490257831215,4.259159910711852,6.859785291184407
546,1456704187518113,6.692581390074195,8.705125062844306,5.092413641158686,2.6240047348591142,1.859411473538214,1.5037848054639054,4.5052040727608835,7.086252851133723
547,1456704187518113,6.834114957663256,8.366992980365012,4.979966250466096,2.5874710177362723,1.8562001575895157,1.48770955230058,4.772478213102187,7.365792440343196
548,1456704187526121,6.97815367169953,8.0256075067922,4.871956162249664,2.5640411775513594,1.8600479756394739,1.476033961549479,5.06125948662754,7.699174764732103
549,1456704187526121,7.124076821100725,7.6848872636506425,4.771332035066395,2.554335758434332,1.8717023226618172,1.4694162225421334,5.371188436650558,8.085552792335216
550,1456704187532984,7.27100954979991,7.3484739996779,4.6811352126175665,2.5585758734613293,1.891663660281414,1.4683395096104839,5.701170587421167,8.52239206372875
551,1456704187532984,7.4178182853373205,7.019692971914248,4.604392637406599,2.5765776854997537,1.9201567612178276,1.4730945159157236,6.04930048673139,9.005456975815543
552,1456704187541209,7.563119886768537,6.701528607346561,4.544006613050476,2.6077571644256774,1.9571111136879313,1.4837677167745589,6.4128141906801766,9.528855213519249
553,1456704187541209,7.705303996172011,6.39661389387865,4.5026454284185045,2.651144533568223,2.002151419859209,1.5002359381550474,6.788074927251138,10.085140471889813
554,1456704187555986,7.8425669708959544,6.107230743434221,4.482638217204724,2.7054079475073363,2.054598704590524,1.5221677211138238,7.170595180504891,10.665471685233607
555,1456704187555986,7.972954709007278,5.835317693952211,4.48587731239185,2.7688860722348636,2.1134821340597276,1.5490318586984198,7.555096848318769,11.259825218996685
556,1456704187563499,8.094410997282516,5.5824811604410245,4.51373161068396,2.8396291765558757,2.1775612326422764,1.580113264320921,7.935609557515628,11.857254987109533
557,1456704187563499,8.204828039172977,5.350007139356881,4.5669745755990085,2.915448030841251,2.2453578476112734,1.6145359942159867,8.305605620332686,12.44619413901733
558,1456704187577432,8.302096560321749,5.138871481892968,4.645730177094462,2.9939695156002633,2.3151970019804113,1.6512928396458686,8.658168403760449,13.014790410830004
559,1456704187577432,8.384154062747267,4.949748079739359,4.749439420387028,3.072697627853187,2.385255631119466,1.6892804874573968,8.986189181198865,13.551265122623995
560,1456704187586217,8.449031135439252,4.783015265091426,4.876849393775703,3.149078639601616,2.4536179886006826,1.7273388671478513,9.282586133113433,14.044283285946321
561,1456704187586217,8.494896951460344,4.638761358313787,5.026026032665878,3.2205693394013286,2.5183361746432897,1.7642929860341174,9.540538174163633,14.483319909353025
562,1456704187592438,8.520105721194028,4.516790661664387,5.194390987462998,3.284707262650774,2.577493825883328,1.7989953074555363,9.753725530179358,14.859006023133455
563,1456704187592438,8.523245523032676,4.4166314367116275,5.378782038473267,3.3391814123247427,2.629270568605026,1.8303665676232672,9.916568262626464,15.163437873612585
564,1456704187601218,8.503189706493087,4.337547610376331,5.575535494909158,3.381901311034448,2.672004433282336,1.857432913960234,10.024453157712738,15.390434485830387
565,1456704187601218,8.459149513046604,4.27855604400891,5.780588131740646,3.4110616120668897,2.704249166737557,1.879357458545295,10.073938546714356,15.535731812533138
566,1456704187616219,8.390725213513864,4.238451005963857,5.989595523976838,3.425199197166726,2.7248234489499756,1.8954648133744654,10.062925899714736,15.597105053529983
567,1456704187616219,8.297952145231958,4.215836934407983,6.198062951473951,3.423239853441328,2.7328495600650213,1.9052578371521915,9.990787125772021,15.574414301773778
568,1456704187623446,8.181337524245732,4.2091696859960726,6.401484193602631,3.4045323059470776,2.7277799802468903,1.9084264724210482,9.858438320004556,15.469572973322485
569,1456704187623446,8.04188375246708,4.216805315097775,6.595482679241878,3.3688684316491524,2.7094114740569415,1.904849004226055,9.66835429972628,15.286443265658786
570,1456704187637433,7.8810943164047345,4.237054162104584,6.775949070795916,3.316489450190614,2.6778870803622654,1.8945863513317946,9.424522498492099,15.030666861114723
571,1456704187637433,7.700959585929171,4.2682368781215505,6.939169786788931,3.248078385336558,2.6336869054567233,1.8778702673583394,9.132338448897034,14.709441443767211
572,1456704187645435,7.503921709464265,4.308738302799517,7.08194200883934,3.164739220438571,2.5776088039230127,1.8550866251021236,8.798448099668034,14.331254825612033
573,1456704187645435,7.292819693948346,4.357055188489462,7.201671706204212,3.0679633464593383,2.5107401867432406,1.8267551468691674,8.430544928981652,13.905589188464178
574,1456704187662438,7.070817310415315,4.4118347040707295,7.296451618037805,2.9595842941567447,2.4344224081741523,1.7935069054945274,8.037132060987183,13.442608042157884
575,1456704187662438,6.8413178999947695,4.471902034125178,7.365116084057196,2.8417222163901994,2.3502093257185193,1.7560607026764985,7.6272610053070915,12.952837892404604
576,1456704187662939,6.607871412265918,4.536276598438575,7.407269752708975,2.7167200359546038,2.2598216111724185,1.71519918248819,7.210259188238405,12.446855681163676
577,1456704187662939,6.374079519393259,4.604177193993376,7.423288126036881,2.5870735941627387,2.1650982838209547,1.67174535166604,6.795458201131325,11.934992145992743
578,1456704187676156,6.14350413126177,4.675016849364272,7.414289720069963,2.4553584715656025,2.0679468358746433,1.6265400378898935,6.391933648090232,11.42706029026864
579,1456704187676156,5.919583411085717,4.748388508908198,7.382081837429749,2.3241563077503846,1.9702932277461234,1.580420667302195,6.008265762250178,10.93211686851336
580,1456704187684156,5.7055579201515085,4.824042760167551,7.329083800241706,2.19598337802491,1.8740329048926885,1.5342015846041832,5.652327899139282,10.458262932023501
581,1456704187684156,5.5044081143055354,4.901858700431194,7.2582324857787475,2.073223921467913,1.7809838488202292,1.4886560465984804,5.331107912445875,10.012487136396832
582,1456704187698158,5.318803290582945,4.981809068112563,7.172875217654847,1.9580703245354605,1.6928425954584816,1.444500046306561,5.050565438345777,9.60055311486986
583,1456704187698158,5.151061379254973,5.063921317931774,7.076654817606941,1.8524717927616154,1.6111441525076329,1.402378227620681,4.815526310351353,9.226930246161636
584,1456704187706157,5.003118684947775,5.148237229105423,6.973391082646739,1.7580926024480006,1.5372267469040861,1.3628522399341974,4.629613714068934,8.894765786581296
585,1456704187706157,4.876508625881844,5.234774242959884,6.8669621904729485,1.6762804564541434,1.4722022571097142,1.3263918999100337,4.495214335751716,8.605895464502076
586,1456704187721158,4.772348485073707,5.323491550191591,6.761188773798145,1.6080449763386526,1.4169330513337755,1.293369458558268,4.413476748603842,8.360889052831162
587,1456704187721158,4.691333126545905,5.414263129681011,6.659722945955915,1.5540460384629395,1.3720158353368892,1.264057131441021,4.384338645391574,8.159127037583804
588,1456704187722159,4.633734726855283,5.506858964610905,6.565944555758909,1.5145914995360459,1.3377730289572598,1.2386278724875965,4.40657929725564,7.998904158154357
589,1456704187722159,4.599407978784731,5.600934822954738,6.482867304851446,1.4896437768737085,1.3142520854779387,1.2171591870916934,4.477893880429995,7.8775551128244325
590,1456704187736159,4.58780078786538,5.696030274793495,6.4130577690839985,1.4788346744340541,1.3012329883911358,1.1996396051383365,4.594986966104201,7.791597071891528
591,1456704187736159,4.597970894717641,5.791573963857332,6.358570435739469,1.4814877422070338,1.2982438846052589,1.18597729296728,4.753683096446882,7.736883138526236
592,1456704187743376,4.628609012377587,5.8868946181610955,6.320901400898079,1.4966473259220163,1.3045844485458553,1.1760102054845663,4.949052596270941,7.70876104245356
593,1456704187743376,4.678069051958126,5.981236028665785,6.300962502891692,1.5231133416103266,1.3193561530776383,1.169517176498752,5.175550595328833,7.7022322920319874
594,1456704187757672,4.7444058137331675,6.073774372033452,6.299076660112991,1.5594807389969523,1.3414982000638198,1.1662293974025881,5.427166837452096,7.712108195246738
595,1456704187757672,4.825420077222321,6.163636784155278,6.314994170782988,1.6041825977787991,1.369827476546191,1.1658418095916394,5.697583318132357,7.733159845863784
596,1456704187765673,4.918710432072062,6.249920797602048,6.347928743991989,1.6555357643270239,1.4030805968702822,1.168024012904195,5.980336223380753,7.760259262219547
597,1456704187765673,5.021730647109224,6.331714828117981,6.396611086549556,1.7117878349137954,1.4399559524389074,1.1724303729055112,6.268978262349167,7.78850889206661
598,1456704187781179,5.131850955054399,6.408120084227757,6.459356995082806,1.771164202232083,1.4791538243893618,1.1787091056247931,6.557237434670482,7.813357005836094
599,1456704187781179,5.24642129931951,6.4782740416427185,6.534146095884726,1.8319139284548784,1.5194130334199587,1.1865102241180518,6.839168371865391,7.830696882392723
600,1456704187782179,5.36283432155894,6.5413751316387305,6.618706639057168,1.8923533593420594,1.5595431520667455,1.1954923339085797,7.109292295143113,7.836947899754881
601,1456704187782179,5.478585665394215,6.596707716057244,6.7106012129163295,1.9509064722736387,1.5984517719071094,1.2053283581216583,7.362721301736882,7.829116944916957
602,1456704187795410,5.591329060779408,6.643665853090359,6.807308216181191,2.006140882322121,1.6351666077970592,1.2157103385685302,7.595262541817311,7.8048394244141654
603,1456704187795410,5.69892376493136,6.681773931748624,6.906294754049404,2.0567983635016174,1.668852386530947,1.2263534650675125,7.803498277933206,7.762400547205296
604,1456704187804180,5.7994724604497465,6.710702216885049,7.005078307368632,2.101818856903754,1.6988225599075697,1.2369994270910891,7.984838834774211,7.700738807555513
605,1456704187804180,5.891348654389921,6.730275828177024,7.101276495456924,2.1403572241056095,1.7245458887857157,1.2474190806103118,8.137546839217974,7.619434067084252
606,1456704187818181,5.973213687495458,6.7404764671532,7.192645744872645,2.1717923270727484,1.7456479006406398,1.2574143049828566,8.26073272457079,7.518682261711344
607,1456704187818181,6.044024308949845,6.741436990989462,7.277110400141281,2.1957283388016755,1.7619072683895756,1.2668188327713241,8.354323022585938,7.399258111402529
608,1456704187826181,6.1030322959085765,6.7334295852598895,7.35278406872756,2.2119885821092047,1.773247378356327,1.2754978206758236,8.419004290894128,7.262466984417552
609,1456704187826181,6.14977788431824,6.716848772930161,7.417985070797492,2.2206026006085704,1.7797236285257696,1.2833460025337362,8.456146456757313,7.110087423278162
610,1456704187840183,6.184078907763745,6.69219077985418,7.471247693345154,2.2217873888466406,1.7815071413819445,1.290284391670194,8.467709743562088,6.944306250809772
611,1456704187840183,6.20601752426532,6.660030953657383,7.511330433787733,2.2159237105627265,1.778865614315268,1.2962556599342916,8.456139263241122,6.767648097934787
612,1456704187841184,6.215926209173978,6.621001079727074,7.537221776028492,2.2035284192139186,1.7721421460903026,1.3012185251952302,8.424251330219946,6.582900850987772
613,1456704187841184,6.214374231296847,6.5757683983187905,7.548143623302703,2.185223817262152,1.7617330989429503,1.3051417023226926,8.375116055951217,6.393038654522473
614,1456704187855185,6.202155046688876,6.525017762542043,7.543552421129245,2.161705289537104,1.7480662106997658,1.3079981173779691,8.311941550885013,6.201144896673831
615,1456704187855185,6.180274025880084,6.4694378351333,7.523138002328019,2.133708592683684,1.7315801398452206,1.3097600726574672,8.23796532022474,6.010338253302034
616,1456704187863693,6.149934969920201,6.40971171019278,7.486820025400557,2.101978226133261,1.712706450208367,1.3103959142636676,8.156357792932784,5.823704556600049
617,1456704187863693,6.112523287105892,6.346511864035375,7.43474162968291,2.0672382682022548,1.6918547899559195,1.3098685760167241,8.070141654864726,5.644236050908612
618,1456704187877632,6.069583621582921,6.2804987898475275,7.367259870270746,2.0301669491770777,1.6694016977712394,1.3081361754714542,7.982129260426973,5.474778281179794
619,1456704187877632,6.022790071610965,6.212322095614797,7.284932804229212,1.9913760286604116,1.6456830816799703,1.3051545996023464,7.894879070758071,5.317984137084017
620,1456704187885635,5.973907759944467,6.142622460528527,7.1885037529127915,1.9513957315898827,1.6209900425592407,1.300881764112936,7.8106706914774096,5.176274504480568
621,1456704187885635,5.9247453303481095,6.072032866666976,7.078883973727717,1.9106656169824379,1.595567485013172,1.2952830313538315,7.731496568594086,5.051805034713328
622,1456704187900703,5.87709892805785,6.001177940724889,6.957135266459183,1.869531367883433,1.5696149365020033,1.2883371690501586,7.659066914039175,4.94643831308034
623,1456704187900703,5.832689366289878,5.930670786141454,6.824453645702398,1.8282471299737724,1.5432890997729083,1.280042215757572,7.594823285630552,4.861720321997166
624,1456704187901420,5.793095446430337,5.861107084690288,6.6821543129615835,1.7869826852840291,1.516707738644766,1.2704206757855017,7.539955781024582,4.798859893563111
625,1456704187901420,5.759687630720361,5.793056520966674,6.531657189776265,1.7458344257024039,1.4899544659841875,1.2595235874295367,7.495419373000179,4.758709954619574
626,1456704187915457,5.7335670889701245,5.72705197663023,6.3744715877093965,1.7048388438742537,1.4630839330280976,1.2474331429857313,7.461946483292648,4.741749780110793
627,1456704187915457,5.715515174041651,5.663577484173805,6.212178333363164,1.663987189897177,1.4361269390754006,1.2342636194868397,7.4400546301399935,4.7480681763556225
628,1456704187923428,5.705957575656473,5.6030563153029425,6.04640778119646,1.6232400971286687,1.4090951361533524,1.2201604203878966,7.430048946817555,4.777348378635724
629,1456704187923428,5.7049460394579645,5.545840604455087,5.878812588992324,1.5825412908881062,1.3819852226935874,1.2052971307297664,7.432019653730211,4.828856254244257
630,1456704187937429,5.71215896734091,5.492203734643797,5.711035056580575,1.5418298468481189,1.3547827053664354,1.189870710134266,7.44583503189022,4.901434012167011
631,1456704187937429,5.726920670609037,5.442336499756782,5.544670322704544,1.5010507754933105,1.3274654118923461,1.1740952286405035,7.471131439623384,4.993501898906401
632,1456704187945423,5.748237630023647,5.396347706654806,5.381228303530179,1.4601639248268876,1.3000069649408734,1.158194768800611,7.507303021892302,5.103070144211969
633,1456704187945423,5.774848868590928,5.3542693664022725,5.222098109413431,1.4191513017724315,1.2723804117118018,1.142396187392028,7.553494475867785,5.227762698773122
634,1456704187960872,5.805286572312385,5.31606619707165,5.068518407842526,1.3780229381686586,1.2445621734281525,1.1269223430682664,7.608600277263891,5.364853325298262
635,1456704187960872,5.837942670545145,5.281649004637546,4.921556154019917,1.3368214209324718,1.2165364320736718,1.1119862097948507,7.671273073106853,5.511313751478707
636,1456704187961874,5.871137493896954,5.250891488991741,4.7820948868689666,1.2956252117220703,1.188300000608297,1.0977860865249491,7.739942695706199,5.6638731226981385
637,1456704187961874,5.903187717576689,5.223649869701024,4.650832769376648,1.25455088846796,1.1598676356929825,1.0845019268084897,7.8128457639166,5.819087812537602
638,1456704187975661,5.932471826598086,5.199784292421697,4.528289817737512,1.2137543883413129,1.1312776471678363,1.072292655806482,7.888064395908505,5.973420454729341
639,1456704187975661,5.957491585695051,5.179180351389148,4.414823193280451,1.1734311839050564,1.1025975165800455,1.0612942220980084,7.963571523300278,6.123326654767269
640,1456704187983697,5.976927548478124,5.161768517114011,4.310648851629229,1.1338151320370728,1.0739290721920163,1.0516180745323558,8.037280128325822,6.265347185719463
641,1456704187983697,5.989686292071394,5.147539036658479,4.215867248472424,1.095175615071045,1.0454126636347052,1.0433497955543387,8.10709455919138,6.396202580554929
642,1456704187997662,5.994937476187649,5.136550111760511,4.130490453353164,1.0578126442841578,1.0172298182070685,1.0365477692220444,8.170963280931625,6.512886032596832
643,1456704187997662,5.992139927598931,5.128927944796264,4.05446817058345,1.022049815813777,0.9896040136830814,1.031241954265818,8.226932926653198,6.61274970904767
644,1456704188005877,5.9810570749829575,5.1248584720500405,3.9877106963160514,0.9882253008583756,0.9627993524257078,1.027432962385431,8.273202806777004,6.693579304606479
645,1456704188005877,5.961762589780241,5.124571799881118,3.9301074381799554,0.9566813153329914,0.9371170101673227,1.0250916530718106,8.30817757630192,6.753652206070208
646,1456704188020892,5.934637023991786,5.1283209946863835,3.8815401520891264,0.927752705213504,0.9128894063422313,1.0241593980947823,8.330514561014818,6.791776137466427
647,1456704188020892,5.9003560593425135,5.1363569478170135,3.841890526282424,0.901755385801986,0.8904721508734673,1.0245491243329699,8.339162186974967,6.807307229176682
648,1456704188021890,5.859870982021462,5.1489010180563834,3.8110421565746897,0.8789753691769896,0.8702339550167737,1.0261472301647716,8.333387196483493,6.800148288197293
649,1456704188021890,5.814381960216745,5.166117380525342,3.7888773437533954,0.8596590105016122,0.8525448202810377,1.0288164412363836,8.312790059066216,6.770729165326755
650,1456704188035894,5.765304362942649,5.1880873148268325,3.7752695988578098,0.8440049408794686,0.8377629241688638,1.0323995986378136,8.27730913966268,6.719971717843508
651,1456704188035894,5.714227885054463,5.214787629358167,3.770073217781035,0.8321579807895,0.826220705807677,1.0367242898830582,8.227214506762408,6.649242219035632
652,1456704188043670,5.662868130846266,5.246074833994083,3.773111538151753,0.8242051759715564,0.8182107270954585,1.0416081753544588,8.163092285134143,6.560294116135709
653,1456704188043670,5.613010888517791,5.281675731257668,3.7841653299462497,0.8201739674262644,0.8139719446926512,1.0468648068536632,8.085820548110354,6.455203806208003
654,1456704188058119,5.566450422641619,5.3211842125191895,3.8029623059922733,0.8200323751635137,0.8136770562580697,1.0523096462933352,7.996537662995556,6.336301904050225
655,1456704188058119,5.524924216742791,5.3640635379080654,3.8291682649368517,0.8236909373200779,0.8174215610107542,1.0577659061716245,7.896603544348503,6.206102503366751
656,1456704188066117,5.490047369514671,5.40965324359474,3.8623800563521975,0.8310060446761509,0.8252150968408617,1.0630698241229448,7.787553842001576,6.067232929089718
657,1456704188066117,5.463250254245156,5.457179791857715,3.902120336135943,0.8417842981979636,0.8369754963238427,1.06807506041753,7.6710473019040695,5.9223661307661795
658,1456704188080789,5.445723126321306,5.5057699446461,3.9478339114440253,0.8557876015991036,0.852525865945492,1.0726560053602214,7.5488074383172155,5.774157273980975
659,1456704188080789,5.438371090160869,5.554465676348779,3.9988853663125825,0.8727388296305281,0.8715948636182026,1.0767098667479633,7.422560719548982,5.625185631327978
660,1456704188081713,5.44178221122237,5.602239528188441,4.054557579369584,0.8923280143022346,0.8938202374331551,1.0801575011715816,7.293974276965993,5.477902738072871
661,1456704188081713,5.456210594292555,5.6480098659179525,4.114050748262609,0.9142190399365782,0.9187555816983745,1.082943078362782,7.164596716848562,5.334587755004132
662,1456704188095608,5.481574996444017,5.690656441278898,4.17648186811983,0.9380568624661214,0.9458801618723528,1.0850328081637526,7.0358059434193505,5.197310756354092
663,1456704188095608,5.517472158062209,5.729037520823372,4.240885343619002,0.9634752799053782,0.974611564496054,1.0864130785574602,6.908767680183457,5.067904214110896
664,1456704188103834,5.56320272952461,5.762010129241988,4.306216138654598,0.9901052417861408,1.00432082911456,1.087088407359689,6.784407467746204,4.947942594134287
665,1456704188103834,5.617806635810007,5.788454510334985,4.371357107625852,1.0175835842927607,1.0343495997597345,1.0870795663297224,6.6633976772067385,4.838729927716848
666,1456704188117836,5.680104171241268,5.807303020125178,4.4351318793252235,1.0455619795145823,1.0640287118904324,1.0864220982379758,6.546159938827324,4.741295301610554
667,1456704188117836,5.748739267677268,5.817572832894947,4.496324167877107,1.0737158569449767,1.0926975479826924,1.0851652612804594,6.432882400891754,4.656396123656232
668,1456704188125825,5.822222259704248,5.818401451965136,4.553703855588439,1.1017530752712341,1.1197234754704128,1.0833712743729567,6.323550215400538,4.584528674235449
669,1456704188125825,5.898970801843882,5.809084025187596,4.60605962487296,1.1294221213726159,1.1445207154143742,1.0811146648650527,6.2179865439330815,4.525944924845339
670,1456704188140896,5.9773488792843805,5.789111433236052,4.6522372804272205,1.1565195444364458,1.1665680424406344,1.0784815320567203,6.1159004009602835,4.480674053226691
671,1456704188140896,6.055704614061486,5.758207702848179,4.691182249453245,1.182896198647089,1.1854247505022102,1.075568557544574,6.016937089095455,4.448546733232608
672,1456704188141611,6.132407656571056,5.71636454656121,4.721984163460326,1.208461713981264,1.2007443335600163,1.0724815703211177,5.920726981941685,4.429220262807245
673,1456704188141611,6.20588664414764,5.66387005161233,4.74392097264807,1.2331865247419538,1.2122853514265959,1.0693334742714435,5.826929018608322,4.422202802938571
674,1456704188155612,6.274666800099394,5.601328077778633,4.756499763615338,1.25710083191519,1.2199190045464234,1.0662414522771368,5.735266442907333,4.4268752313169895
675,1456704188155612,6.3374072142416775,5.529665024222246,4.759491367034843,1.280290060496428,1.223633042630428,1.0633235404664216,5.645553700750208,4.442509328348932
676,1456704188170839,6.392936646425679,5.4501214100073945,4.7529559374731996,1.3028866591043873,1.2235317886694872,1.060694791249725,5.557714454260757,4.468281318220273
677,1456704188170839,6.440286119607313,5.364227212424239,4.737256914425813,1.3250584611726617,1.2198322751986053,1.058463244140306,5.471791209998347,4.503280292401754
678,1456704188178107,6.478716447101175,5.273761878728838,4.713061196578634,1.346994256636134,1.2128567362866784,1.0567258464861224,5.387947379517143,4.546511742698606
679,1456704188178107,6.50773909060301,5.180701680670287,4.681324259259523,1.368887607804851,1.2030218939330273,1.0555644001034954,5.3064628437056065,4.596897129355772
680,1456704188185883,6.52712900348043,5.087157936448341,4.643260460903991,1.3909201479430062,1.1908255506999543,1.0550415936369781,5.227724125926319,4.653270905226838
681,1456704188185883,6.536928137205222,4.995309522469824,4.600300481995432,1.4132455562910002,1.1768309840489066,1.055197193935686,5.1522101078671865,4.7143767608529235
682,1456704188201107,6.537438181262535,4.907332461252253,4.554039031560658,1.4359751517603017,1.1616496305179609,1.056044481414962,5.080474098498023,4.778865148972682
683,1456704188201107,6.529201324405194,4.8253286103472535,4.506176415888883,1.4591657106499212,1.1459225974498888,1.0575670273801439,5.0131229923986185,4.845294260194228
684,1456704188202115,6.512968886104221,4.7512548752410835,4.458457555231265,1.4828098124780118,1.1303016061912627,1.0597159611434315,4.950793940707102,4.912136417600076
685,1456704188202115,6.489659478318466,4.686854182215945,4.4126118419188805,1.5068288232377987,1.1154299940367765,1.062407978404002,4.894128422517399,4.9777914364324145
686,1456704188215860,6.460310006566784,4.6335898203047465,4.370296962266793,1.5310685558943213,1.1019243741488849,1.065524456032562,4.84374337222792,5.040607974313861
687,1456704188215860,6.4260234910089995,4.592585540521953,4.3330494435282905,1.555297664275349,1.0903574954713058,1.0689120871908158,4.800199545081729,5.098913201843767
688,1456704188223996,6.387917469197259,4.564574519890978,4.3022441903158954,1.5792088421123351,1.0812427525612929,1.072385394247685,4.763968429986894,5.15105014845537
689,1456704188223996,6.347076150639458,4.549860517517069,4.27906460827155,1.6024228606000555,1.0750206491908667,1.075731328309907,4.735400104050202,5.195420953162488
690,1456704188238113,6.3045087741565045,4.54829421486333,4.264484053645244,1.624495413420857,1.072047345234001,1.0787159576051633,4.714694895960379,5.230533365190975
691,1456704188238113,6.261115863261154,4.559267087813067,4.259258295000408,1.6449266836032943,1.0725852770470345,1.0810930080625003,4.701881465077683,5.255047583852332
692,1456704188245851,6.217664499746574,4.581724383718468,4.263927481360135,1.6631734832244778,1.0767957758054296,1.082613771932356,4.696803168462138,5.267820901440707
693,1456704188245851,6.1747734426748275,4.614197839561745,4.278824892619373,1.6786637167389573,1.0847336061933728,1.083037687541859,4.6991136907350315,5.267948136592519
694,1456704188261108,6.1329086235362436,4.654857604170422,4.304088706015595,1.690812787035871,1.0963433874703918,1.082142772308707,4.708282001496293,5.25479599517512
695,1456704188261108,6.092388886256521,4.7015815037143325,4.339672489778596,1.699041422772329,1.1114579398808535,1.0797351044559043,4.723605800117999,5.228029290115317
696,1456704188262073,6.0534009110937985,4.752038545029959,4.385350505882629,1.702794285764148,1.1297987230565456,1.0756566981850038,4.744231762063672,5.187626981196347
697,1456704188262073,6.016021584182219,4.803782575491819,4.440715307831616,1.701558648628177,1.1509786608932076,1.0697913550612415,4.769180344447098,5.133886737915187
698,1456704188275881,5.980245976725412,4.854351348376407,4.505167296641206,1.694882421824259,1.1745077128593764,1.0620683369555566,4.797372962356294,5.067417926634545
699,1456704188275881,5.946019343527567,4.90136584907903,4.5778982491183235,1.6823908507716925,1.199801520674971,1.0524639467672123,4.827660076430858,4.989123883858511
700,1456704188284105,5.913271645252992,4.942624660992749,4.6578726450069645,1.6638013193094916,1.2261933483406635,1.0410012806020015,4.8588497192876705,4.900174755799522
701,1456704188284105,5.8819527841968515,4.976188506041991,4.743811404088534,1.6389358981410338,1.252949370634121,1.0277484900221048,4.88973660440604,4.80197234692174
702,1456704188298066,5.852066121592047,5.00045096420847,4.83418239420551,1.6077315028025674,1.2792871717803165,1.0128158727443186,4.919131877202287,4.696108638175897
703,1456704188298066,5.823697243009109,5.014192675867751,4.9272011985506525,1.5702476901830902,1.304397127317766,0.9963520496793642,4.945892943103651,4.5843198674361645
704,1456704188306104,5.797034796841306,5.016617769668539,5.020844639594317,1.5266722427941024,1.3274661982785956,0.9785394255960334,4.968952032863593,4.468438142976855
705,1456704188306104,5.772380880542198,5.0073725117528864,5.112878757588629,1.4773248453141459,1.3477035705062825,0.9595890707893875,4.987341559281974,4.350342450697087
706,1456704188321103,5.7501497526499685,4.986547122707148,5.200902360683566,1.422659319874481,1.36436749323834,0.939735109190352,5.000214036156,4.231910657224966
707,1456704188321103,5.73085500933801,4.954662407615155,5.28240672412498,1.363264920528744,1.3767925859850108,0.9192286927656328,5.006854379533058,4.114973753286242
708,1456704188322109,5.71508632254371,4.912643294860799,5.354851301886799,1.2998670366090408,1.3844167729606325,0.8983317002856381,5.006682765036027,4.001273223030904
709,1456704188322109,5.703477496205878,4.861781560893528,5.415754318931549,1.2333274047589171,1.3868068665295434,0.877310374167047,4.999247004545504,3.892422166191349
710,1456704188336109,5.696668273755148,4.8036900457321385,5.462795884856025,1.1646437014736601,1.383681718427637,0.8564291467978934,4.984204797100415,3.7898706702107297
711,1456704188336109,5.6952630120653716,4.740250682439603,5.493929952787196,1.0949482495164038,1.3749318887761157,0.8359449104784599,4.961297910040647,3.694875905530706
712,1456704188344105,5.699789716178811,4.673558639026435,5.507500198391567,1.0255055163814055,1.3606349575505265,0.8161019848172855,4.930321621041956,3.6084774427712514
713,1456704188344105,5.7106627909173,4.605864664485628,5.5023538610774265,0.9577080497469239,1.3410658131973199,0.7971280384573216,4.891093157999633,3.5314782809313314
