,timestamp,x,y,z
0,1456704184615859,0.00035075121439173603,0.00024090750834870788,0.00018245950100570835
1,1456704184637877,0.0013577096175616445,0.0027577301424580635,0.0010588578305332989
2,1456704184661848,0.002356957728665031,0.0049330302979120905,0.0018933075526601964
3,1456704184676855,0.0033617025648723566,0.006496769301851608,0.0026387724180846174
4,1456704184697894,0.004414448370668135,0.007306397832098382,0.0032404935078876704
5,1456704184722104,0.005531187355234598,0.007386254131907404,0.0036493405038468033
6,1456704184736856,0.006640766567202161,0.006933059970578219,0.0038457701629241304
7,1456704184758209,0.007573332059027241,0.0062672802095819205,0.0038575234124546775
8,1456704184797567,0.00811711042187451,0.005728360785889264,0.003754116214913856
9,1456704184798567,0.008116874721086893,0.005553675217468014,0.0036184613850932476
10,1456704184819568,0.0075644290325810005,0.0058053475107041844,0.003515755704007254
11,1456704184841895,0.006635809981149888,0.006382044680629699,0.003482396621408239
12,1456704184859094,0.005649259732280362,0.007096153425204301,0.0035394561433392396
13,1456704184879606,0.004949458652394409,0.007762264657514204,0.003713122966517512
14,1456704184915606,0.004763915118323679,0.008252722615354195,0.004038923620773053
15,1456704184939608,0.0051020278522765855,0.008507691037327096,0.004540255262310241
16,1456704184940608,0.005749840740409586,0.008510850464075941,0.005191529778567459
17,1456704184960614,0.006362134139699979,0.008252688421337065,0.00589024215697857
18,1456704184976620,0.00660575597529777,0.00770889786537498,0.006464838121869445
19,1456704184999622,0.006291763883450074,0.006855130981084142,0.0067306924401582075
20,1456704185020785,0.005446144736699951,0.005712364923360833,0.006575443155036419
21,1456704185036624,0.004294922051416183,0.004387242807749131,0.006026829212126273
22,1456704185059630,0.003173512920714269,0.0030708020624767907,0.00525929889381885
23,1456704185080637,0.002403552658993897,0.0019900827292345198,0.004533580272547828
24,1456704185096638,0.002192179672810804,0.0013396481656861906,0.004103904405788645
25,1456704185119639,0.002589328659418113,0.0012285311767505232,0.004138591473152275
26,1456704185141640,0.0035046320849970954,0.0016635911258132193,0.004682161339926727
27,1456704185156646,0.004760330438978965,0.002566758224388265,0.0056620701448406655
28,1456704185179653,0.006150606288611032,0.003805619829638063,0.006926757491626412
29,1456704185200660,0.007488137711504591,0.005216636825693419,0.008298079571044802
30,1456704185222661,0.008631976891925798,0.006617854713645816,0.009622522417961547
31,1456704185239850,0.009494336215253064,0.007824768515220402,0.010802349756047588
32,1456704185260858,0.010025211313102316,0.008681127844865808,0.01178822336894961
33,1456704185282566,0.010190141409104686,0.009099406140036678,0.012536492859832235
34,1456704185299365,0.009975023357190516,0.009091765759816049,0.012968930141116308
35,1456704185320615,0.009435608181587184,0.008775445796304444,0.012981312269633883
36,1456704185342563,0.008757687824487197,0.008353655876748021,0.012507951490584212
37,1456704185361119,0.008262634974908567,0.008085453071312268,0.011594572372170247
38,1456704185380777,0.008325276782514705,0.008250748448951451,0.010418026310836418
39,1456704185402789,0.009237159943733681,0.009099733085475046,0.009232731263669058
40,1456704185419789,0.011082671500061187,0.010776739021576514,0.008278082645495271
41,1456704185440872,0.01367855988320343,0.013237034871698448,0.007701785459687081
42,1456704185463094,0.016595674402649866,0.016204199087315574,0.0075375566798042415
43,1456704185487605,0.01926345101568524,0.01920752323956183,0.0077449014363341825
44,1456704185500610,0.021137282901453457,0.021695312483336886,0.008284993558948042
45,1456704185522821,0.021873017054283232,0.023184389257114087,0.009176632875951378
46,1456704185539607,0.021431557927669972,0.02340225030446077,0.010475750272968262
47,1456704185562059,0.020063220073327056,0.022383627803601168,0.012173366346126613
48,1456704185583155,0.01818287906960308,0.02048148333117183,0.014082970543492682
49,1456704185599824,0.016202200559400585,0.018265256069688977,0.015819437270647982
50,1456704185621826,0.014402969368666377,0.016323440974518804,0.016914704166913697
51,1456704185642867,0.012904158716851235,0.015042455491229408,0.017009795497607425
52,1456704185659864,0.011711894516296622,0.01446156831189428,0.016003502785858166
53,1456704185688903,0.010792525929627962,0.01428105987713916,0.014077796064952467
54,1456704185702883,0.01011164593874826,0.0140322615374797,0.011610374004718059
55,1456704185719871,0.009624989513632342,0.01333462833841931,0.00904118519569783
56,1456704185741866,0.009249441095949223,0.012110384420545198,0.006756745023596667
57,1456704185770880,0.008855515711091754,0.01063952112661409,0.005023776400448548
58,1456704185779881,0.008304427436850604,0.009423717224698506,0.003971852352443837
59,1456704185801882,0.007517556324266896,0.008938839920945702,0.003606320086966287
60,1456704185822918,0.0065368088140035936,0.009413991218621557,0.003832194610682987
61,1456704185839889,0.005532230032527398,0.01074262838133254,0.004481770686578169
62,1456704185862136,0.00474118636323238,0.012540890495094457,0.0053496257039067985
63,1456704185882507,0.004363866461246604,0.014289541886195665,0.0062364419665374175
64,1456704185899536,0.004468805061374733,0.015482522754616583,0.006990205843071969
65,1456704185921314,0.00496099035106395,0.01574938922015928,0.0075270157882452535
66,1456704185942511,0.005630567068001207,0.01495605436728563,0.00782495371097173
67,1456704185959519,0.006252632731238067,0.013273183026551729,0.007902341294905264
68,1456704185981221,0.006681079455313154,0.011167827940605531,0.007797855047378319
69,1456704186003222,0.006889795355614166,0.00928400509196294,0.007560432256425813
70,1456704186019222,0.00695051838150804,0.008235759832425579,0.007243561695514374
71,1456704186049224,0.006970838592490507,0.008386579005948417,0.006896310658971613
72,1456704186062732,0.007031864148293854,0.009695355477075137,0.006554431295063643
73,1456704186079248,0.007159426003113482,0.011687810412124564,0.0062436917574189245
74,1456704186101249,0.007335837208848471,0.013582678964191295,0.00599887273928112
75,1456704186122255,0.00752741610628062,0.014553952093785,0.005881310701307586
76,1456704186139251,0.007697807064860547,0.01404422645753509,0.0059703492430202365
77,1456704186161757,0.007804353995796213,0.0120009619556893,0.006326566832261536
78,1456704186182263,0.00779839461763369,0.008931651554387812,0.006958210484474016
79,1456704186199265,0.00764171808273345,0.005761438322548813,0.007826831799987612
80,1456704186221266,0.007327303917459844,0.00357076545497974,0.008892967210999553
81,1456704186242268,0.006885919515864219,0.0033266489818791593,0.010162927042768303
82,1456704186259776,0.006376496793273614,0.005682932113758614,0.011694808913799707
83,1456704186281292,0.005874721853160539,0.01085707354055575,0.013557011240196051
84,1456704186302293,0.005473190313041498,0.01855585109422546,0.015766425701062212
85,1456704186326295,0.005293007840829148,0.02794694723825652,0.01823808265822269
86,1456704186341296,0.005493888763989528,0.03772426564707907,0.020769045606475037
87,1456704186362818,0.006264081552534713,0.04632604524794098,0.023076118848011584
88,1456704186379338,0.007778119508884447,0.052311315042664924,0.024895505142971234
89,1456704186401340,0.010131742010889675,0.05481510058258598,0.026119045930018802
90,1456704186422346,0.013285033727414417,0.0539185524372789,0.026903970750817924
91,1456704186439341,0.017043170088091343,0.05072320548516609,0.02767704022566029
92,1456704186462094,0.021078679016672052,0.04699214503387008,0.028978542691699617
93,1456704186482752,0.02498181487158269,0.04444869151608904,0.03117573231864655
94,1456704186505761,0.028332139715493396,0.04406528270565848,0.03419389755503441
95,1456704186521555,0.030783693307564728,0.04571985505507615,0.03745798057371138
96,1456704186544557,0.032135871781676706,0.04838636735577999,0.040114395804328726
97,1456704186566234,0.0323662827249302,0.05070901201478299,0.04138410955282163
98,1456704186581866,0.03163453186162801,0.05160151262749171,0.040800995981216594
99,1456704186604865,0.030261069817792405,0.050553249440432234,0.03823356771573521
100,1456704186626206,0.028648511496662574,0.04758412250258812,0.03381070044484206
101,1456704186641868,0.027139088087430124,0.043044482708271575,0.027907302369915465
102,1456704186664678,0.025885487450737914,0.03747147152598742,0.0211813962985574
103,1456704186686228,0.02482706908666749,0.031527531182512045,0.014529904794381907
104,1456704186701231,0.023774797875784653,0.02591541383815474,0.008891794813442681
105,1456704186724233,0.022528574084857585,0.021217205313499705,0.004973706701635797
106,1456704186746011,0.02095944911351299,0.01772943298160174,0.003044920239395824
107,1456704186762021,0.01904012519516095,0.01540448734686642,0.002902069279218486
108,1456704186784317,0.016834776789516864,0.013934889577233793,0.00400303910562525
109,1456704186805547,0.014466782946050312,0.012919372256103557,0.005693007079472122
110,1456704186821319,0.01209003947767914,0.012017273173190672,0.0074234357330384805
111,1456704186844321,0.009881662352280501,0.011037784223313722,0.008881076246604587
112,1456704186865842,0.008043348647251135,0.009961200216824655,0.009983261363080396
113,1456704186881349,0.006776778773172877,0.008906640171364983,0.010759071765854583
114,1456704186904350,0.006216572724526853,0.008061196867953835,0.011204821718147255
115,1456704186925562,0.006349280399386118,0.0075937935415118325,0.011222239893720596
116,1456704186941353,0.006973505467640319,0.007584230264138732,0.01068306192036747
117,1456704186964576,0.007738580139762618,0.00798948685081458,0.009557636005692429
118,1456704186986062,0.008254833504433085,0.008653229512293756,0.007993569313331712
119,1456704187002065,0.008229758248913034,0.009351944786332318,0.006282189555440869
120,1456704187024804,0.0075692630816922,0.00985934105168667,0.004747984623136616
121,1456704187045805,0.006398807647848715,0.010001207401301029,0.003643124415701735
122,1456704187061830,0.005000647730798599,0.009680977035544363,0.0031003020895041962
123,1456704187084839,0.003705122343326942,0.008881543789230395,0.003141554711736174
124,1456704187106181,0.0027883705449333637,0.00766374847563118,0.0037076100221143018
125,1456704187121842,0.002412168278798388,0.0061694329582464265,0.004675850915590158
126,1456704187144878,0.0026110217090517703,0.004616637485066973,0.005863588881984944
127,1456704187165656,0.0033084937187215944,0.003271419020930753,0.007039501423664095
128,1456704187182200,0.0043415855191817464,0.0023935737936482716,0.007964702017750012
129,1456704187204214,0.005485862842187061,0.0021688165750840594,0.008457834783774393
130,1456704187226214,0.006488988495126079,0.0026514383394532063,0.008453416999257213
131,1456704187241175,0.007122288020171876,0.0037444880556367025,0.008023352988634328
132,1456704187264700,0.007247382231487101,0.005233806636656581,0.0073552252758729295
133,1456704187285680,0.006875288734444958,0.006870269221042754,0.006704591365006024
134,1456704187303421,0.006183335670933775,0.008471427490216045,0.0063422341593998895
135,1456704187324422,0.005468514420919166,0.010000511181670361,0.006501489585780324
136,1456704187345445,0.005051281578717191,0.011584454976272402,0.007317748175402978
137,1456704187361934,0.005169938245747162,0.013452245157931956,0.008764260229416199
138,1456704187384440,0.0059029369916069625,0.01580481102720422,0.01061592859875175
139,1456704187413442,0.007139669575524737,0.018663162671913484,0.01248109690795376
140,1456704187421442,0.0086066278799444,0.021770587342876516,0.013913982730026515
141,1456704187444444,0.009943602637262018,0.024620987101142636,0.014574929786647935
142,1456704187466966,0.010812813249930903,0.02663135948880381,0.014369913148450398
143,1456704187480980,0.011019363509349879,0.027395334894834988,0.013499024903799329
144,1456704187505114,0.010620272655019986,0.02689479912103007,0.012388957829805187
145,1456704187527112,0.009988144497328757,0.025542670290574557,0.01155154426846545
146,1456704187541209,0.009779820174498466,0.024000889306211214,0.011440532274286661
147,1456704187565100,0.010771969402003157,0.02285277304272657,0.012344823467989879
148,1456704187586217,0.013585969655628981,0.0223256919620932,0.01430488862293727
149,1456704187601218,0.01840500177300529,0.022247822637581478,0.017040824775281398
150,1456704187624219,0.024819630777471444,0.02226399278218747,0.019938817421776098
151,1456704187646232,0.03188368564430629,0.0221470059891769,0.02217455704226546
152,1456704187663939,0.03835782272738178,0.02197495497780721,0.022986645283076063
153,1456704187685157,0.043042714340845334,0.02205203431448991,0.02199037091390632
154,1456704187707158,0.04509192615266911,0.022636940951554628,0.019357159321241286
155,1456704187728159,0.044219000970440354,0.02366965217941573,0.015745454937347518
156,1456704187745160,0.04074449164080882,0.02468402173587158,0.012014814474027372
157,1456704187766673,0.035469020680661746,0.024977483197075948,0.008880051716496315
158,1456704187788179,0.029414259182206064,0.02394839131406354,0.006681755061700751
159,1456704187805180,0.02352552129681641,0.021403066450960295,0.0053626567259940396
160,1456704187827183,0.018443841337761384,0.01765895064416535,0.0046166191502678006
161,1456704187847185,0.014419431764043507,0.013410599357835663,0.0040984621362235435
162,1456704187864910,0.011373464388440013,0.009462019660384489,0.0035862403914137175
163,1456704187886418,0.009054585754585044,0.006462775654945498,0.003048309014383436
164,1456704187907427,0.0072070483749159895,0.004735566082482183,0.002625525226704147
165,1456704187924421,0.005680817443263933,0.004227324925224949,0.0025592995475122483
166,1456704187946424,0.004457285670287634,0.004582809045232448,0.003091840841007234
167,1456704187967877,0.0036065206254143503,0.005309238702102738,0.004361713515954631
168,1456704187984661,0.0032125606821762375,0.005967921154764152,0.006323061086063557
169,1456704188006892,0.003301873444273033,0.006316710803819279,0.008719463604072547
170,1456704188027900,0.0037982295549946134,0.00635259007517816,0.01112892908072136
171,1456704188044664,0.0045170590341039206,0.006254994642606748,0.013067187175883253
172,1456704188067112,0.0052044657760666425,0.006273580035730679,0.014115158724420417
173,1456704188087833,0.0056124868017906485,0.006611497943648512,0.014036582180884369
174,1456704188104818,0.005584411271567816,0.007335780209935148,0.0128566243091588
175,1456704188126853,0.005114943504201268,0.008332445552379216,0.01086924670927409
176,1456704188147612,0.004357513897729417,0.009324105595254104,0.00855219122435092
177,1456704188171861,0.0035711153472321217,0.009958069342221222,0.0064115141292040495
178,1456704188186848,0.003023742374453711,0.009940209118455596,0.004822513950871981
179,1456704188208116,0.0028905824657002796,0.009156886355468324,0.003936570789417295
180,1456704188224850,0.0031903893456289483,0.00772552194910164,0.003682975893999982
181,1456704188246852,0.0037846797559995373,0.005949297183456399,0.0038472990047305087
182,1456704188268093,0.004433245449656426,0.004199795504804962,0.004180853032829755
183,1456704188285105,0.004880172830504285,0.002784861052424344,0.004492874017497336
184,1456704188307105,0.004944133834324822,0.001861943082236698,0.0046934843064614165
185,1456704188328103,0.004589477216778082,0.0014291830643499211,0.004785325168393529
186,1456704188345105,0.003953110353177549,0.0013826190676096035,0.004828635032185297
187,1456704188367104,0.003310777122733501,0.001594730825845929,0.004908174538397356
188,1456704188390118,0.0029912208251100677,0.001967615037055754,0.00511103538304854
189,1456704188411119,0.003268071719531951,0.0024414940879599564,0.005506681959326937
190,1456704188427120,0.004261783195991383,0.0029748950845343955,0.006123064033375878
191,1456704188449122,0.005877980400990561,0.003533161925272896,0.006926622385316316
192,1456704188464643,0.007805417038471688,0.004113678042177286,0.007820758540549798
193,1456704188486161,0.009587399219589803,0.004801512401996977,0.008670215089806201
194,1456704188509162,0.010755600829780387,0.005809840244667447,0.009344046920945858
195,1456704188524183,0.010987166958413935,0.007448073194249938,0.00976026708191214
196,1456704188546165,0.010235097590920766,0.009994077735664974,0.00991981273864553
197,1456704188569721,0.0087905905721944,0.013510591506750248,0.009928503023650642
198,1456704188586204,0.007253908503184536,0.01770367204284574,0.010006456117936864
199,1456704188606206,0.006412304322171688,0.021929136102951035,0.010472157813633795
200,1456704188629207,0.007046780767052305,0.02538654485507389,0.011679509298307455
201,1456704188646208,0.00970802314571826,0.027430876460631918,0.013898122049046361
202,1456704188666728,0.01451514813431952,0.02785367544715958,0.01716006747707147
203,1456704188689249,0.021038735397463062,0.026986902139574286,0.0211354944506487
204,1456704188706285,0.02832055733445722,0.025561017132590562,0.02512296118520793
205,1456704188726251,0.035051063667226774,0.024373899298206308,0.02821593423516941
206,1456704188749253,0.03988527361728324,0.023941143919683355,0.029613072994501582
207,1456704188766810,0.04183099210433947,0.02431528440759094,0.028923057052998545
208,1456704188785299,0.040580953940025234,0.025143998183622583,0.026290365475209798
209,1456704188808300,0.03662490126034677,0.025878705626254057,0.022290613737872667
210,1456704188830298,0.031052892545584656,0.025991012690226366,0.017700647014899602
211,1456704188845297,0.025135477207793158,0.025119866363977846,0.013285478225931242
212,1456704188868835,0.019894391227295753,0.0231426697231104,0.00966129357764864
213,1456704188890340,0.015853307250340353,0.02018126265580326,0.007215132625087949
214,1456704188905345,0.013031345186563804,0.01655663039828227,0.006058004801722563
215,1456704188928343,0.011118571958153863,0.012712918677942902,0.006022698320666907
216,1456704188950348,0.009709203731495536,0.009126836136193353,0.006729858278143667
217,1456704188965863,0.008479023450188507,0.00621038467538391,0.007718521445079088
218,1456704188988421,0.007259830126163309,0.0042200439976073315,0.008596588439270796
219,1456704189010391,0.00603019519886835,0.0031991488163726723,0.009149056336342408
220,1456704189025392,0.004865550667740593,0.0029822217992571355,0.009359853891160917
221,1456704189048424,0.0038797662318850157,0.0032672814559868645,0.009343339675558537
222,1456704189070909,0.003173975258335439,0.0037263246577777234,0.009225062275135754
223,1456704189085425,0.0028000436712833044,0.004104964162771047,0.00904093102585027
224,1456704189108450,0.002743600409349769,0.004274998905846748,0.008718655834001053
225,1456704189130423,0.002929080926489943,0.004234303997985208,0.008154650067429913
226,1456704189145424,0.003243618246938889,0.004071722201203647,0.007330002997605155
227,1456704189168944,0.0035694688028389348,0.0039181544999945216,0.0063768007407964565
228,1456704189190667,0.0038117032829082615,0.0038968242080329478,0.005542860986963247
229,1456704189205659,0.003913357188355857,0.004082126048680773,0.005077143604579455
230,1456704189228687,0.003859239930056729,0.0044787218698759375,0.005107299893901961
231,1456704189251475,0.003672657991420597,0.005026719820177503,0.005575913286306777
232,1456704189265911,0.0034062924469779833,0.0056235981307995574,0.0062613364000589245
233,1456704189288669,0.0031275674071719844,0.006145620753070756,0.006865459187757745
234,1456704189311773,0.002901596982043774,0.0064598840810184376,0.007125950975331717
235,1456704189326774,0.0027756125673346053,0.006433549038775149,0.0069085189136309354
236,1456704189348436,0.0027680366997132272,0.005955936343270464,0.006247693093966922
237,1456704189380730,0.0028678583415551037,0.004986252400760057,0.0053276246158479494
238,1456704189386017,0.0030512882072899488,0.0036252036619389286,0.004422115551030734
239,1456704189409067,0.0033133781380380242,0.0021862191610247084,0.0038256912214806424
240,1456704189431738,0.003696359977203717,0.0012215046798354486,0.003790993385499731
241,1456704189445734,0.004290852372676914,0.0014559489421054708,0.004464904762772573
242,1456704189468749,0.0051993600118598925,0.003607032082647654,0.005820961236413744
243,1456704189490967,0.0064746446394089285,0.008115946772241528,0.007615395230483104
244,1456704189507064,0.00806420987007541,0.014872785336889514,0.009413537806030436
245,1456704189528968,0.009796981919941819,0.023065033274593843,0.010718052183262827
246,1456704189551971,0.011434194181839297,0.031269857585585654,0.011181545077994745
247,1456704189568165,0.012773281792468134,0.03781718707835506,0.010823654737821629
248,1456704189589062,0.013755483715521516,0.04131809590579395,0.010135645195114104
249,1456704189611028,0.014517076784337203,0.04117263190220134,0.009983777765778702
250,1456704189628067,0.015362055023727256,0.03786987076200369,0.011315945197464157
251,1456704189649063,0.016688205852178506,0.03293315622730278,0.01477808690940706
252,1456704189671761,0.01890285921384204,0.028456371570789635,0.020391477688876298
253,1456704189687241,0.022311719500388346,0.026356602986023412,0.027415561063969477
254,1456704189708467,0.026940759525258935,0.027647967376875363,0.03446285655694483
255,1456704189730246,0.032331547805862934,0.03206247105656322,0.039871055926402714
256,1456704189747247,0.03747463951994687,0.038177180118290195,0.04225317816293125
257,1456704189768539,0.04105278973241287,0.04397558699447603,0.0410271944111723
258,1456704189791843,0.041971688670157825,0.047597132192055205,0.036653681077135875
259,1456704189807551,0.03989449162419717,0.04796330236306023,0.030415631395036394
260,1456704189828849,0.03542678242257465,0.0450377621961164,0.023847258350570662
261,1456704189851559,0.029821466953995318,0.03967040971402868,0.01813981653975489
262,1456704189866848,0.02439869111970847,0.03317576637588428,0.013826786597304906
263,1456704189889110,0.020030432531231372,0.0268668673332266,0.010831015034805219
264,1456704189912102,0.01693908732539183,0.021707504957720093,0.008750091808437135
265,1456704189927858,0.014834973672213665,0.01815591211826194,0.007184865210267198
266,1456704189948859,0.013237762800799902,0.016196117267338037,0.005954557741641703
267,1456704189971887,0.011771565898627124,0.015490785980113837,0.005127566059736981
268,1456704189993894,0.010291628906709663,0.015565129312462183,0.004892748496157215
269,1456704190009012,0.008835212456109872,0.015953622392443266,0.005368912079301254
270,1456704190030896,0.007494228986757864,0.016281013768451945,0.006467382519998964
271,1456704190053900,0.006318072549738934,0.016285705300299675,0.007879493140176504
272,1456704190076635,0.005293938438498942,0.015818782882532002,0.009185818464310883
273,1456704190091634,0.004385007578256322,0.014847177409085296,0.010017889565954058
274,1456704190113550,0.0035768758217459076,0.013455479513870654,0.010181320340496134
275,1456704190128549,0.0028942875878422035,0.011820611825945921,0.009684247910951217
276,1456704190151345,0.002383666681428772,0.01015439827010892,0.008682352969278547
277,1456704190173563,0.002082271709565903,0.008639747972968901,0.007399625372031733
278,1456704190188078,0.001995762947563905,0.007389412330444486,0.006074385625057589
279,1456704190211113,0.002092476554149071,0.006438590885963379,0.0049302493958611774
280,1456704190233073,0.0023124903655899914,0.0057653489557763365,0.004140814668779776
281,1456704190248074,0.0025859028374585055,0.005322607213903559,0.0037773768464980733
282,1456704190271586,0.002851026444174183,0.005064362011249945,0.0037699537310483164
283,1456704190293091,0.003060747245193887,0.004956435096153509,0.003922687586798591
284,1456704190308092,0.003172682649907038,0.004971404939013831,0.00399364261279809
285,1456704190331093,0.003134862254307033,0.0050742630798456334,0.0038051903595320382
286,1456704190355094,0.00288902776855652,0.005211450056767179,0.0033289084547007243
287,1456704190368985,0.0024053786589958697,0.005318851514227555,0.002702444555161018
288,1456704190392080,0.0017378740056087027,0.005357506546895439,0.0021735051815377346
289,1456704190412998,0.0010658228378715158,0.005369239304873083,0.00200188069025932
290,1456704190428998,0.0006850308602481593,0.005525867057103694,0.002364987891439022
291,1456704190451006,0.0009339890554339431,0.0061344665686012025,0.0033034441742113454
292,1456704190474034,0.002073444831819924,0.0075689066917666616,0.004718651600782597
293,1456704190490007,0.004163748513772746,0.01013111945422651,0.006407708711115671
294,1456704190512009,0.006993761907752676,0.013889252237300618,0.008109310351548885
295,1456704190534071,0.01010399288465225,0.018562845132614237,0.009545543025924563
296,1456704190550012,0.012913468938079924,0.0235115290320983,0.010464427798976297
297,1456704190571809,0.014910720584498494,0.02784718812173842,0.010692746281964404
298,1456704190593817,0.015827666596743003,0.03065431486407129,0.010192144914605744
299,1456704190610818,0.01571679258894364,0.03127523428882604,0.009092964917003595
300,1456704190631819,0.014909328992621878,0.029582197641273726,0.00768108385821414
301,1456704190654071,0.013902425006484363,0.026123029493433075,0.00633308858154426
302,1456704190670616,0.013241013368453798,0.0220379338208054,0.005417583483007525
303,1456704190691725,0.013416968104268857,0.01873438318764521,0.005193743595050888
304,1456704190713411,0.014767700426382474,0.017430272852440885,0.005740739430011463
305,1456704190730413,0.017367162651906055,0.018746282093378346,0.0069425934398018975
306,1456704190758421,0.020941045527683753,0.02250578663278889,0.008532924952605336
307,1456704190774014,0.02486280409081595,0.02781235674519821,0.010179936795573337
308,1456704190790939,0.028285146998320576,0.03336751070115442,0.01157439668051115
309,1456704190811940,0.030413761846707524,0.03789860193576491,0.012484143271956545
310,1456704190841718,0.030822616179497258,0.04052404381626301,0.012766647055771069
311,1456704190850713,0.02962404259326817,0.040924237909210175,0.012370359689029125
312,1456704190871766,0.027368984338559187,0.03929453915291385,0.01136112165222732
313,1456704190893711,0.02474240173178334,0.03615420686265119,0.009962534725579206
314,1456704190910452,0.022254779797274287,0.032117467943301156,0.008550146808760798
315,1456704190931675,0.020097295887791872,0.027717424660590056,0.007555264964988029
316,1456704190953784,0.018191964538407292,0.02333443113485676,0.007306918241342526
317,1456704190970783,0.01635453956168518,0.01921629709323695,0.007895668964271952
318,1456704190991774,0.014455365181162562,0.015526745420397567,0.009133586760054378
319,1456704191022017,0.012501368314271809,0.01237407184736385,0.01063048336326197
320,1456704191030785,0.01062630499042563,0.009822767490212023,0.0119475779132526
321,1456704191052021,0.009019662000489643,0.007905136523690284,0.012751302681651422
322,1456704191073705,0.007836538207168342,0.006628307850531796,0.012891571037273418
323,1456704191090206,0.0071278565974434984,0.005963652580288796,0.012379778826941712
324,1456704191112207,0.006817934058189472,0.0058219360140146816,0.011313257339778619
325,1456704191134209,0.006734041987026496,0.0060351382128174995,0.009823989607763109
326,1456704191149211,0.006671369995497429,0.006368731469522516,0.008086030102609422
327,1456704191172046,0.00646593376079572,0.006572807358123904,0.006340441302015232
328,1456704191193847,0.006046474255066893,0.006454256800490903,0.0048707575114338535
329,1456704191216852,0.005445020770895349,0.005936554359974134,0.003912693833869063
330,1456704191231567,0.004764673651012646,0.00508253024991015,0.0035511664554096992
331,1456704191253852,0.004123144146473495,0.004075620865228132,0.0036772423726887725
332,1456704191276398,0.0036007001120462526,0.0031664015556378696,0.004037738718840542
333,1456704191291411,0.0032170633437264436,0.0025948332839506464,0.004350577955560915
334,1456704191313408,0.002944781483714156,0.0025061257957469493,0.00442338372868439
335,1456704191336409,0.0027448369642095252,0.0028865306981912223,0.0042194631203564285
336,1456704191351409,0.0025984753127321,0.0035437155987308212,0.0038509288559432767
337,1456704191373928,0.0025159663960110375,0.004145404364418825,0.003514837023440057
338,1456704191389762,0.002520717227185678,0.004317645327251975,0.0034075136562791183
339,1456704191412764,0.002622211915585393,0.003789521125494453,0.0036536523095566497
340,1456704191434074,0.002797978295257228,0.0025490883559026118,0.0042729201498976944
341,1456704191449767,0.003003237076328573,0.0009529153146017982,0.005184430599905413
342,1456704191472566,0.0032148076257790307,-0.0002723905979100487,0.0062350340556841756
343,1456704191501877,0.0034920486928463595,-0.00017221202249913513,0.007240973283817049
344,1456704191516876,0.004012442286581097,0.002163885341109219,0.00803999553589494
345,1456704191532576,0.005035812635320938,0.007267259749200253,0.008544414467396616
346,1456704191553804,0.006786285891644312,0.015001836872406414,0.008773613627331195
347,1456704191576969,0.009301671807110112,0.024443118221800262,0.008848544989378697
348,1456704191592999,0.012342940215722256,0.03400875207370328,0.008950263259024491
349,1456704191613996,0.015440125101338357,0.041837412715731444,0.009260899388168856
350,1456704191636997,0.018070764466534054,0.046309583017951066,0.009909482190402611
351,1456704191652996,0.019874833575157746,0.04654754748993422,0.010941570660227993
352,1456704191673722,0.02078635901407464,0.042746423355349464,0.012324934394979106
353,1456704191696212,0.021031527432750656,0.03623088681800256,0.013988482666723624
354,1456704191712227,0.021032173220180344,0.029176915226277286,0.01586650557020089
355,1456704191733499,0.021275195457097815,0.02401744547517658,0.017904009101049057
356,1456704191757215,0.02217262973924957,0.02267435262660883,0.019998944027108112
357,1456704191773090,0.023917663345070544,0.025866758894902322,0.021913331911564683
358,1456704191794067,0.02636674727181753,0.03276947504677575,0.0232362266278363
359,1456704191817041,0.029014061714128982,0.041205447621898185,0.023473200131881804
360,1456704191832075,0.03112565395124206,0.04836221973170239,0.02225505675306265
361,1456704191853049,0.03202741264657308,0.05178624665762214,0.019557589072971462
362,1456704191876851,0.0314139443213882,0.05025138121855566,0.015790270738610127
363,1456704191893059,0.02948531349637824,0.04413771635753063,0.01168091959545801
364,1456704191913062,0.026819719117385846,0.03519422198818649,0.00800863239574676
365,1456704191937127,0.024070885157782752,0.025840379888410914,0.005330203920688639
366,1456704191952063,0.0216771305044265,0.018318604876941733,0.0038413835592571543
367,1456704191973854,0.019731591703508442,0.014005757975577932,0.003419677409157303
368,1456704191996370,0.01804962394279115,0.013094482089902366,0.003782422742822534
369,1456704192012370,0.016355620586534236,0.01470998449248265,0.004641746701067632
370,1456704192033668,0.014459308901477352,0.01736630975685617,0.005772177470367121
371,1456704192056378,0.012331204861221304,0.01955424862468054,0.006989507277766465
372,1456704192072987,0.010076127218933747,0.020239797072216226,0.008105156992652575
373,1456704192093878,0.007862139501129519,0.019118758303751024,0.008922740496343447
374,1456704192116880,0.005859480612988044,0.016578378220645375,0.009290007360774158
375,1456704192132887,0.004209923176620691,0.013427863945806372,0.009162573608506155
376,1456704192153886,0.0030164814189214003,0.010533612549678955,0.008625045548488825
377,1456704192176899,0.0023328788311597873,0.00850179732837784,0.00785080348288252
378,1456704192192979,0.0021449540484726275,0.007506714134909807,0.00702452799766189
379,1456704192213980,0.00235792982050688,0.007302809211188276,0.006270237110595222
380,1456704192236984,0.002809804300355196,0.007397501058473011,0.0056199508273328475
381,1456704192258882,0.0033148486434068634,0.007306756839632265,0.005033515961182924
382,1456704192273399,0.0037191818399296525,0.006782338519443306,0.004450634076087
383,1456704192296618,0.0039419004369925905,0.005909754439115035,0.003840387162733664
384,1456704192312620,0.003984659830250938,0.005034588431503651,0.003223032817514412
385,1456704192333956,0.003910115721948898,0.004558401158209137,0.0026616613623522013
386,1456704192356629,0.0038025117455237254,0.004708596807204721,0.002236014477167798
387,1456704192372644,0.003727433999908936,0.005394870396725468,0.00201183540576917
388,1456704192394973,0.0037055225613244766,0.0062203392908638765,0.0020166973911401186
389,1456704192416971,0.0037100475274571367,0.006646589171259057,0.0022325843276832717
390,1456704192433102,0.0036909046311933403,0.006248525994454562,0.002610633862615699
391,1456704192455047,0.0036163457941605468,0.004959115321175631,0.0031016708703078045
392,1456704192476767,0.003511875206471096,0.003206474062498123,0.0036859383759605124
393,1456704192492775,0.0034741931850731872,0.0018808760029031622,0.004385166465533574
394,1456704192515776,0.003651759762046088,0.002118576482668424,0.005247022917499039
395,1456704192537041,0.004199196223102123,0.004938411561660213,0.006300080240491946
396,1456704192552778,0.005217205081343994,0.010819067483788698,0.007491095495740137
397,1456704192575304,0.006691803987208551,0.019361816398753482,0.008640563094182544
398,1456704192595810,0.008458847265520037,0.02921134761195071,0.009468888490255909
399,1456704192611966,0.010227815302314279,0.03834536910045994,0.009720751884198332
400,1456704192635813,0.011677512928489429,0.0446788865826794,0.00934579806052213
401,1456704192657032,0.01259138028515078,0.046759004980199144,0.008630592878096617
402,1456704192673071,0.01296993886599544,0.04428440014603846,0.008183492927789382
403,1456704192695335,0.013070062418721792,0.03827673243551468,0.008754324265696906
404,1456704192716664,0.013359022044091076,0.030846127840353604,0.010957051033008805
405,1456704192738628,0.014394266710835957,0.02458414154852094,0.01499557420549637
406,1456704192755339,0.016636518286665774,0.021736339012720828,0.02048165306265818
407,1456704192775850,0.02021463180462122,0.02343390546023927,0.026422293232670927
408,1456704192798947,0.0247216581054716,0.029288204400137526,0.03143756213124638
409,1456704192815964,0.029190586091560947,0.03752489800416229,0.034198757803563504
410,1456704192836964,0.032369382879198445,0.045620113405052766,0.03393934179838324
411,1456704192858959,0.033239171577430955,0.05119315225363654,0.0307802726336363
412,1456704192875861,0.03151102488169345,0.05279011956036443,0.025665316047693117
413,1456704192896309,0.027795549357306645,0.05024183749863896,0.01993201841037109
414,1456704192918525,0.02333017460133394,0.044505754510787164,0.014771507600504368
415,1456704192935313,0.019420802697751684,0.037159097517336,0.010864671127835785
416,1456704192956626,0.0169034033278418,0.029815166805418018,0.008323430906394584
417,1456704192980337,0.015883759277604242,0.023669866092530085,0.006871864215421149
418,1456704192995336,0.015839297320151415,0.01927597678770375,0.006106941534988095
419,1456704193016555,0.01597897961338988,0.016560836970974924,0.005698685120556958
420,1456704193038551,0.01564458676273291,0.015033147556255524,0.005467508526022603
421,1456704193055339,0.014551291407319871,0.014066512734513996,0.00535475467595536
422,1456704193076945,0.012792890950244301,0.013136867120959331,0.005348752020821087
423,1456704193098487,0.01068210518228497,0.011940173573245649,0.005430543323087989
424,1456704193115354,0.008560240054248776,0.010393722282870842,0.005566711471358359
425,1456704193136584,0.006677080198217338,0.008578682131196698,0.005730658793301784
426,1456704193158643,0.005164395399285124,0.006679838379869842,0.005915171126130143
427,1456704193174945,0.004066533684620829,0.004936246448148145,0.006117708939604329
428,1456704193196388,0.0033794095962871936,0.0035868421637816126,0.006310317102230542
429,1456704193218603,0.0030717575608814286,0.002805764571470591,0.006421896627421518
430,1456704193234391,0.00308745928754618,0.0026474963908359045,0.006356854304692965
431,1456704193256399,0.0033402813412529496,0.003027351020149169,0.006053849812090789
432,1456704193279261,0.0037153542690674455,0.003746731019836616,0.0055558895449927355
433,1456704193294256,0.004085481809634351,0.004553407883791769,0.0050389246668069215
434,1456704193318257,0.004336498242945397,0.005214678570638103,0.004759754572724792
435,1456704193338545,0.004386880746052237,0.00557524295446991,0.004936361291347793
436,1456704193354260,0.004193044766318574,0.005576715669183576,0.005625032448908694
437,1456704193377788,0.003747282121051854,0.0052378047753712355,0.006666948283673838
438,1456704193398514,0.003083802404214877,0.004620400934152601,0.007739099942242837
439,1456704193414298,0.0022994694779863794,0.003813198722002048,0.00848986292690234
440,1456704193445305,0.0015757760385736526,0.0029470905409650014,0.008697103306719562
441,1456704193458300,0.0011750635647303765,0.0022314079078446804,0.008371319441213719
442,1456704193474936,0.0013900536120014782,0.0019786656672248744,0.007747391226628634
443,1456704193497571,0.00244899870987869,0.002574779582157344,0.007164424622579919
444,1456704193518804,0.004405437146154123,0.004366984329164152,0.006895125880502519
445,1456704193541800,0.00705872058305903,0.0074920211165311204,0.007013087438736225
446,1456704193557804,0.009951922775189255,0.011728137503309116,0.0073640450300268626
447,1456704193578807,0.0124733594589699,0.016472879949347437,0.007655986404604875
448,1456704193593812,0.014048299609638689,0.020890283390908093,0.007630674622932092
449,1456704193617938,0.01435972965586911,0.02416947760611606,0.007242962921575808
450,1456704193638930,0.013503708135730527,0.02577860951608552,0.0067648511885415475
451,1456704193654931,0.01199773803813255,0.025629665311233733,0.0067546711034318615
452,1456704193677324,0.01063146029476509,0.024134890360323638,0.00788195195525611
453,1456704193698904,0.01023117714155824,0.022152944967365175,0.010654799673655006
454,1456704193713833,0.011431653980047763,0.02080307139405877,0.01513851038320091
455,1456704193737002,0.014501237865495871,0.02114398884482763,0.020775339711384167
456,1456704193759002,0.019217880797452163,0.023789610348739623,0.026412477740489923
457,1456704193774346,0.024810094462163857,0.028602123882772473,0.03059894090724388
458,1456704193796855,0.030041858841341227,0.03460945178445845,0.03210022046040109
459,1456704193820002,0.033528816983681375,0.04023672606143043,0.03042648648732513
460,1456704193834965,0.034239380582597324,0.04382324347031007,0.02608460946184274
461,1456704193856858,0.03194244928336485,0.04423508421614977,0.02037261588011239
462,1456704193878869,0.02732294677727629,0.041284778028907475,0.014812329318249533
463,1456704193893994,0.021678291340286416,0.03575335427784841,0.010544633062383955
464,1456704193917054,0.0163708330727415,0.029033316162631655,0.008001274265618405
465,1456704193938996,0.01233131464904064,0.022594056756850365,0.00695505556915604
466,1456704193961962,0.009835520998817229,0.017509276609373334,0.006826330328539545
467,1456704193977392,0.008601650322002866,0.01421137905948415,0.007028144157599174
468,1456704193998609,0.008090135481939023,0.012516161999692008,0.007178741860731736
469,1456704194021685,0.0078101137763867375,0.011845548049706622,0.007132902462248102
470,1456704194037400,0.007482611939429404,0.011517519185323188,0.006897362584124832
471,1456704194058408,0.0070356139083294555,0.010986876796233743,0.006536453593508565
472,1456704194081919,0.006508182044105991,0.009973897101656215,0.00613223028165298
473,1456704194096921,0.0059567023137877505,0.008473094974887805,0.005787721478781871
474,1456704194117921,0.005409820673967964,0.006677131198480127,0.005620367224518891
475,1456704194141922,0.0048682704640243815,0.004870440974223231,0.0057150612743742
476,1456704194157923,0.004324188169247388,0.0033356104756481486,0.006061473258731973
477,1456704194178932,0.003778793231839863,0.00228796961724221,0.006531368465918031
478,1456704194201994,0.0032494288281875675,0.001835317710799827,0.006929195087792003
479,1456704194216988,0.002764768435548103,0.0019586122748521803,0.007091885320397025
480,1456704194238986,0.002351850915697894,0.0025171929403949014,0.00696980639284243
481,1456704194260951,0.0020240036994778766,0.003285343625856985,0.006631683696921441
482,1456704194277457,0.0017792186446077011,0.004017654965221254,0.006197849565790822
483,1456704194299967,0.001609855047918913,0.004524096417018584,0.005763403816317733
484,1456704194321983,0.0015146948804130504,0.004726006931920821,0.005373368312560084
485,1456704194336972,0.0015034911482720939,0.004668736906364872,0.005059022889272319
486,1456704194367516,0.0015910998235233525,0.004482900569330169,0.004888302046728471
487,1456704194380991,0.0017847836775623813,0.004308745689985777,0.0049715462441445885
488,1456704194396992,0.0020698777581027697,0.004218170096079074,0.005405126335006332
489,1456704194419992,0.0023979162470742377,0.004174375026806184,0.006191869060896633
490,1456704194441993,0.0026818744411751857,0.004054521122713106,0.0071987344841648844
491,1456704194456995,0.0028062294335031747,0.003731986188519725,0.008183148167145136
492,1456704194480006,0.002660183578782597,0.003185751610848334,0.008871481626244708
493,1456704194501300,0.0021942755645148818,0.0025899233396524117,0.009050129492036183
494,1456704194517014,0.0014840115540363987,0.0023414493596956958,0.008640227984111456
495,1456704194540017,0.0007689474458612546,0.0030010719339787872,0.007742660737188856
496,1456704194562017,0.0004346575987152935,0.005143738538088247,0.006640566930615786
497,1456704194577528,0.000923331777094446,0.009141329244440628,0.00574562242397631
498,1456704194600037,0.002589307260485951,0.014935990308046614,0.005489663991213723
499,1456704194622039,0.005545251186418504,0.021898025619885374,0.006190269617943777
500,1456704194637042,0.009559751279829653,0.028867828941819135,0.007940158896899332
501,1456704194660040,0.014055922697364593,0.034421968812679435,0.010567492754802324
502,1456704194682057,0.018221687306006665,0.037292688970478646,0.013679008957457717
503,1456704194697058,0.021199930725068893,0.03678250320522822,0.01675380202675217
504,1456704194726297,0.02231364559384891,0.033008781668731293,0.01924763299163207
505,1456704194742061,0.021288198045451536,0.02687759274150568,0.020703126122192793
506,1456704194757099,0.018414647195831517,0.01979387549195221,0.02088591709782849
507,1456704194780074,0.014560010860626898,0.01323170266025165,0.019931738055599627
508,1456704194801348,0.010951239596814866,0.008342027662271897,0.01841930332907962
509,1456704194817086,0.008774875168125468,0.005724224476191247,0.01725843207934461
510,1456704194840088,0.008757159612731918,0.005387945600250391,0.01735837102788149
511,1456704194861130,0.010909880625902866,0.006865385159913462,0.01919125546012046
512,1456704194877876,0.014540800987502298,0.009418961983395008,0.022486654662892305
513,1456704194900881,0.018512213587227214,0.012287058279426161,0.02627221596465269
514,1456704194921883,0.021643960285897247,0.014890826693390613,0.02928521368222907
515,1456704194937887,0.02310877178714795,0.016919136249541132,0.030536554348584922
516,1456704194960623,0.0226689961947624,0.01826848246159331,0.029704167901156008
517,1456704194981924,0.020670335347127283,0.018913086524134464,0.027158291889163477
518,1456704195003656,0.017819255349116193,0.018821213352868797,0.02367057755174418
519,1456704195019657,0.014866551393929074,0.017975819750145696,0.0200317045246697
520,1456704195041643,0.012345333362354632,0.016461293713133276,0.016791305461845797
521,1456704195057650,0.010459393208910848,0.014526491578833909,0.014196322626406466
522,1456704195079342,0.009130659496645467,0.012556552560017633,0.012268693961519075
523,1456704195101295,0.008144273225724958,0.010952216865037692,0.010912860020602357
524,1456704195117049,0.007301329144888271,0.009978123031942567,0.009980528817926309
525,1456704195139050,0.006506700422122235,0.009666855121114572,0.009293074652664133
526,1456704195161058,0.005770710871155696,0.009836001174594763,0.008664930966242629
527,1456704195177812,0.005154358507031059,0.010202061289133105,0.007955521145955177
528,1456704195206862,0.00470625069491112,0.010511415414292747,0.007132029283382646
529,1456704195222864,0.004425328506359364,0.010611696412060622,0.0062978843482832505
530,1456704195243860,0.004259101763012457,0.010449482448283181,0.005652736070104072
531,1456704195259865,0.00412987918775746,0.010036045967078983,0.005389211091380992
532,1456704195281916,0.003973962808379369,0.009426899984651982,0.00557493496997146
533,1456704195303237,0.0037764905869283505,0.00872842643751574,0.006087244828145864
534,1456704195318919,0.0035851396659864437,0.008111059670117677,0.006645977063418356
535,1456704195341919,0.0034915451263342824,0.007793193728055598,0.0069355871052163886
536,1456704195362921,0.003584278344019832,0.00797341613049595,0.006754886664610534
537,1456704195379426,0.003897837412705711,0.008727808123923353,0.006116655906876996
538,1456704195402933,0.004390433568716135,0.00992744183153501,0.005250047130974983
539,1456704195422934,0.004965038731106981,0.011237694476643453,0.004509723397009927
540,1456704195438934,0.0055161378953515906,0.012224682846587316,0.004232135772524363
541,1456704195461936,0.005968497946766189,0.012531694121466075,0.0045926898809830995
542,1456704195483415,0.0062863552201746185,0.01203942902025781,0.005518439268485906
543,1456704195499541,0.006457434676693543,0.010924098301486709,0.006699267486957868
544,1456704195523343,0.0064734925841610155,0.009577981162169472,0.007705304266169131
545,1456704195543628,0.006324625053679793,0.008428110836830772,0.008163070040314236
546,1456704195559346,0.006005790841415219,0.007742814643284282,0.007900951584859723
547,1456704195582848,0.0055233052566711445,0.00752247232653124,0.006989412665449902
548,1456704195603848,0.004896915537466041,0.007524775361413207,0.0056730824754147036
549,1456704195619854,0.004164184337856985,0.007405945865917031,0.00425890224007732
550,1456704195643586,0.003390874855031206,0.006908368411833155,0.0030292929969388113
551,1456704195663586,0.0026792131210531538,0.006011070031593286,0.0022051390628583406
552,1456704195679598,0.002162851646174626,0.004979923862893381,0.0019441964138585091
553,1456704195703864,0.0019863478691776793,0.004297298466439148,0.0023499152877336344
554,1456704195723863,0.0022756529292276514,0.004496761192612958,0.003469847796772865
555,1456704195739610,0.0031078586484498305,0.005961431905361547,0.005271346978131491
556,1456704195762611,0.004488510210910298,0.008761994370645721,0.007599557386395638
557,1456704195783832,0.006345107768262181,0.012606610605687435,0.010146767690761779
558,1456704195799829,0.008540117597754028,0.01693334962805438,0.012475401034779012
559,1456704195823832,0.010895245373984494,0.021098576715219836,0.014119104465882493
560,1456704195843834,0.013210237323524218,0.024551773232691358,0.01473647324752905
561,1456704195859833,0.0152651903638958,0.026904420849316706,0.014244713583060516
562,1456704195883860,0.01682053394492282,0.027897445142724134,0.012866246397122706
563,1456704195903709,0.017658572187053544,0.027358786118835417,0.011081919517506224
564,1456704195919710,0.017701751728702142,0.025240451081826043,0.009535641973248974
565,1456704195942931,0.017170286388302602,0.02174498615725216,0.008926150588591192
566,1456704195963713,0.016657797074422172,0.01745838702933269,0.00987871415021935
567,1456704195979723,0.01700193093493216,0.013359520160149472,0.012772154334276128
568,1456704196002853,0.01893603208941214,0.010616650517901274,0.017532948068520213
569,1456704196023852,0.02265926066076335,0.010202372926409162,0.023482634435893178
570,1456704196038733,0.02755827370030558,0.012485209761780927,0.029378523951205295
571,1456704196061850,0.03228787139895242,0.017003632523230682,0.03374149411603384
572,1456704196083201,0.03525300997376,0.022563826913975744,0.035395309012069824
573,1456704196098979,0.03529341602328726,0.027650819628933676,0.033953688719546994
574,1456704196121981,0.03221506835331057,0.0309728663479952,0.02996457857759208
575,1456704196142985,0.02687878943919396,0.03188111990500359,0.02462354342358398
576,1456704196158983,0.020808005782718707,0.030490718206471756,0.019241773581114757
577,1456704196181993,0.015536245966914844,0.02750435600699073,0.014771692461429623
578,1456704196204998,0.012026284334924876,0.023866965400940226,0.011597001685635005
579,1456704196218999,0.010419439495931224,0.020412529664945046,0.009606528021160514
580,1456704196242001,0.01017841236457256,0.017632225570839315,0.008430710952305125
581,1456704196265004,0.010483431657692888,0.015620931731635233,0.007681857063648869
582,1456704196279549,0.010638317202457014,0.0141774365316037,0.007090641160310764
583,1456704196302523,0.010291781961456765,0.012986581652047462,0.006523595487298254
584,1456704196325524,0.009432303279749346,0.011805608316349756,0.005939559151846238
585,1456704196339552,0.00825038799678871,0.01058863119748439,0.0053538510331208
586,1456704196362551,0.006993260566944392,0.009504964505654086,0.004832847341073149
587,1456704196385807,0.0058823329190415725,0.008842759171468487,0.004491666730220721
588,1456704196399841,0.005092814966489069,0.008834290724003333,0.004461991287326409
589,1456704196421915,0.0047539211415424274,0.009482990178537386,0.004830270264414093
590,1456704196445787,0.00493157280734659,0.010493543281741567,0.005576644877164056
591,1456704196466915,0.005592111732312328,0.011371745279936197,0.006548294355002926
592,1456704196482423,0.00657963209125788,0.01166364557998043,0.007486935666457768
593,1456704196504931,0.007638950938966897,0.01119977546228427,0.008111684444591705
594,1456704196526154,0.00848452841787659,0.010187778485289511,0.00823698701624161
595,1456704196542953,0.008885082742085522,0.009089542617782049,0.007882849387458363
596,1456704196564936,0.008730178714475376,0.008359779692412207,0.007320240103694032
597,1456704196586952,0.00806334643654544,0.008205055823701369,0.007003421354289429
598,1456704196601953,0.00708000241261551,0.00849815694393758,0.00738659801216805
599,1456704196624954,0.006085855952414515,0.008883688706153262,0.008692860106727129
600,1456704196645958,0.005410465663821459,0.008998836454392195,0.010751946290850297
601,1456704196661967,0.00529118803880007,0.008668732291839109,0.013006152782354806
602,1456704196685354,0.005774167064855627,0.007961888007841486,0.014705159743560271
603,1456704196706355,0.00668746146511474,0.007094702611136786,0.015215956262570406
604,1456704196722357,0.007709507005528827,0.00627503634691772,0.01431051340473913
605,1456704196745359,0.008503036161449507,0.005596700843324989,0.012291056824059489
606,1456704196766361,0.008847589968985837,0.005039359930930191,0.009880466219432152
607,1456704196782368,0.008707083163683073,0.00454965702945962,0.007919922697535319
608,1456704196805376,0.008206710047177516,0.004132532817551896,0.007016602742227114
609,1456704196826684,0.007540000614428243,0.0038869522308511463,0.007310231742650938
610,1456704196842379,0.006860387625749938,0.003965027472775726,0.008464169737580417
611,1456704196865380,0.006219574392260983,0.004482390813101634,0.009870606426851381
612,1456704196886547,0.005586643572714786,0.00543065635349088,0.010952439256241361
613,1456704196902246,0.004925368557043309,0.006637693734321174,0.011406487103792301
614,1456704196924247,0.004264481801367304,0.007800584683106278,0.01128348030408604
615,1456704196948249,0.003706003768527495,0.008585140691310873,0.010896427459311605
616,1456704196962255,0.0033687104071278085,0.008750721336704565,0.010624241111005262
617,1456704196984723,0.003309579601611482,0.008240470939249839,0.010705073088417541
618,1456704197006753,0.00347551719466611,0.007193808207399567,0.011107766732720669
619,1456704197022494,0.0037162072472480836,0.0058805945486709935,0.011539959182477664
620,1456704197044494,0.003854490709925137,0.0045948698137528035,0.011592514047479399
621,1456704197066833,0.0037784963026023044,0.0035586519697066383,0.010947303741201864
622,1456704197082522,0.0035044767859458473,0.0028720421205429684,0.009536766141650567
623,1456704197104531,0.0031719543456690314,0.0025193070702224487,0.0075749409663044606
624,1456704197128532,0.0029697347541214375,0.002418534868859312,0.005459470249162918
625,1456704197142533,0.0030315988254335097,0.0024898578200050385,0.003612400085407973
626,1456704197164534,0.0033590261106697526,0.002710165978573851,0.00234329095791093
627,1456704197187855,0.0038139212411413795,0.003123734063916396,0.0017848236475241366
628,1456704197201900,0.004185044990033459,0.003797660908616678,0.0019008027959054692
629,1456704197223851,0.004289652644453705,0.004744733487941164,0.0025335327316811022
630,1456704197247748,0.004053689128833302,0.00586136270598196,0.0034575576995413207
631,1456704197261809,0.0035338417100917716,0.00692369322776263,0.004427124743300163
632,1456704197293805,0.0028855404738632067,0.0076535998681443425,0.005220854591590758
633,1456704197308806,0.0023068798953739733,0.007829061598593713,0.00568764870044913
634,1456704197321876,0.0019842630636433267,0.007388633716801806,0.005786934169383124
635,1456704197343830,0.002048852927449766,0.006476884364674857,0.005603596507817718
636,1456704197368722,0.0025444905629161637,0.0054019085377902945,0.005317633584141581
637,1456704197382759,0.0034096169599035016,0.004518908528894966,0.0051296050862584515
638,1456704197403945,0.0044795121703780786,0.004088952737981753,0.005170826553183788
639,1456704197427947,0.0055139467958302225,0.004169738077794956,0.005437208920991352
640,1456704197441950,0.006247159711567769,0.004580613555640045,0.005774340489691556
641,1456704197463951,0.006447758752778405,0.004960460015576438,0.005923032789860073
642,1456704197488485,0.005973875711939324,0.004906510292236037,0.005614848527659025
643,1456704197502487,0.004812360594240249,0.004145218081257645,0.004685378907280047
644,1456704197524488,0.003092666747313875,0.0026601787625235274,0.003158336744186364
645,1456704197548489,0.001067199673676928,0.000713010546621829,0.0012589189363629576
