,timestamp,x,y,z,w
0,1456704184615859,8.712577365121579e-06,2.1974012491774294e-06,1.6644571425701995e-05,1.2792854111259851e-05
1,1456704184637877,4.7282873153859076e-05,1.0796473151008358e-05,1.9450947406354162e-05,3.928913338613255e-05
2,1456704184661848,8.312060795856464e-05,1.8325391974576188e-05,2.1110702750216495e-05,6.29723030045017e-05
3,1456704184676855,0.00011359652297625344,2.3889471899415324e-05,2.0948458143964023e-05,8.154112550654401e-05
4,1456704184697894,0.00013601998371633905,2.7155624720025277e-05,1.9229661092749498e-05,9.315710380599507e-05
5,1456704184722104,0.00014872217837311178,2.8318062473075563e-05,1.707289827117232e-05,9.710796267016865e-05
6,1456704184736856,0.0001524039776103218,2.7894844452994545e-05,1.598987766592937e-05,9.444660378400296e-05
7,1456704184758209,0.00015081963963452932,2.6518540560750752e-05,1.72749232472866e-05,8.812760174758785e-05
8,1456704184797567,0.00015001756385295585,2.482316331118337e-05,2.150965279450804e-05,8.231621965013218e-05
9,1456704184798567,0.00015605828425878328,2.3414251226725664e-05,2.8388368130099206e-05,8.092825909038247e-05
10,1456704184819568,0.0001720391794332442,2.2850067838393756e-05,3.691710884948522e-05,8.590079070823949e-05
11,1456704184841895,0.00019586582253045882,2.3576373011995785e-05,4.5834352887648216e-05,9.599102879557767e-05
12,1456704184859094,0.00022012128632572053,2.5804239817732783e-05,5.396908758916044e-05,0.00010684936590585426
13,1456704184879606,0.0002345272271358601,2.938505917242778e-05,6.034355677345658e-05,0.00011260336229174662
14,1456704184915606,0.00023019504896729838,3.380881523245721e-05,6.411276223559067e-05,0.00010839316873626787
15,1456704184939608,0.00020380393151412675,3.8471716395292506e-05,6.463783615807745e-05,9.268509437081425e-05
16,1456704184940608,0.00015972091392643068,4.322636366890744e-05,6.18796002463024e-05,6.820799522797469e-05
17,1456704184960614,0.00010907196962980422,4.892167303322331e-05,5.6948860126217616e-05,4.10543667169089e-05
18,1456704184976620,6.624512387175777e-05,5.739359588936808e-05,5.237171662345739e-05,1.8428633788701436e-05
19,1456704184999622,4.431977966883244e-05,7.05500593449159e-05,5.168081497357467e-05,6.099489575092284e-06
20,1456704185020785,5.10664000648614e-05,8.884041157401387e-05,5.833152029953382e-05,6.5412172085227725e-06
21,1456704185036624,8.673062176956427e-05,0.00011002338467744543,7.439938827619537e-05,1.82786388119507e-05
22,1456704185059630,0.00014419175510223432,0.0001292103694348244,9.969739857068246e-05,3.649784827236478e-05
23,1456704185080637,0.00021137995904769305,0.00014059572980519753,0.00013172133057791672,5.470621214129166e-05
24,1456704185096638,0.00027512002022110524,0.00014043098872999716,0.00016638026316285678,6.701080846995041e-05
25,1456704185119639,0.0003250950730546557,0.00013003888299682994,0.0001991288245453018,7.033273015878995e-05
26,1456704185141640,0.00035664006705461026,0.0001172940106978721,0.0002260665496831271,6.569833886159489e-05
27,1456704185156646,0.0003715830748215311,0.00011526499808990983,0.00024473864542902526,5.791951458328869e-05
28,1456704185179653,0.0003770817879460274,0.00013772656671725644,0.0002545706524160348,5.360998964212547e-05
29,1456704185200660,0.00038294630938249337,0.0001927800489969769,0.0002569353103258421,5.8308065111250774e-05
30,1456704185222661,0.00039806866195105523,0.0002772300072348149,0.00025476830980788025,7.399384543257136e-05
31,1456704185239850,0.00042658956002303473,0.00037480949796796806,0.0002516180575543342,9.819338276600365e-05
32,1456704185260858,0.00046490079419806546,0.00046019285168832544,0.0002503009744653922,0.00012520142522041739
33,1456704185282566,0.0005013609948846541,0.0005080619932650353,0.00025184599301868323,0.00014900148571834882
34,1456704185299365,0.000520357636638592,0.0005035159547251593,0.0002554925230820085,0.00016658715741771672
35,1456704185320615,0.0005100105036376378,0.0004488451488336593,0.0002596851332489368,0.00018001320079707179
36,1456704185342563,0.000469603070236179,0.00036334484089639276,0.0002629919431798758,0.00019591798196832465
37,1456704185361119,0.0004117523749854205,0.0002764057829683257,0.00026396996970589633,0.0002223966865556614
38,1456704185380777,0.00035709828285984143,0.00021713351402120483,0.00026034240683474254,0.00026451886863957346
39,1456704185402789,0.00032424984271172146,0.0002045722922467425,0.00024899557427549284,0.0003207257752102591
40,1456704185419789,0.0003210934736607562,0.00024161039852037757,0.0002278606880916932,0.0003821115455443712
41,1456704185440872,0.0003426944025514616,0.0003142144282453367,0.00019893314055831058,0.000435177295891889
42,1456704185463094,0.00037652350240536387,0.0003963713181414852,0.00017013218303640933,0.00046685160947983136
43,1456704185487605,0.00041084841857345336,0.0004594277393255141,0.00015394046687770542,0.0004693794368452508
44,1456704185500610,0.00044027879923772635,0.0004823765487511633,0.00016275476072832173,0.0004427645386041842
45,1456704185522821,0.00046497359048664497,0.0004586924422639529,0.00020303557053324354,0.00039388293343268024
46,1456704185539607,0.0004850323951547138,0.00039707350600894786,0.0002710585062259114,0.00033325288191955185
47,1456704185562059,0.0004952515636985586,0.00031683724713263927,0.00035219984254971775,0.00027134720117203955
48,1456704185583155,0.0004850451594196289,0.0002409533449586172,0.0004242953178194112,0.00021591718271916745
49,1456704185599824,0.00044446117188403256,0.00018952909525466995,0.00046442482279535877,0.00017107255165110046
50,1456704185621826,0.0003727360567549592,0.00017528288456188204,0.0004572641335787764,0.00013845209725169035
51,1456704185642867,0.00028372416648053423,0.00020155366827089184,0.00040187336693450727,0.0001200715075653055
52,1456704185659864,0.00020419052138781024,0.00026267762506085866,0.00031352952291006876,0.000121032801909642
53,1456704185688903,0.0001651524180681656,0.00034593249241816036,0.00021897887070610036,0.0001495233426191091
54,1456704185702883,0.00019020218227039072,0.00043423412801136277,0.0001466265818242219,0.00021283730055870258
55,1456704185719871,0.0002858230227879688,0.0005094060781850068,0.00011570814042477544,0.0003109840069121224
56,1456704185741866,0.000437319215649813,0.0005561447788950761,0.00012895704096276933,0.0004317322817339197
57,1456704185770880,0.0006117295607251736,0.0005662039622613818,0.000171813905195552,0.0005510341996230546
58,1456704185779881,0.0007669700965078118,0.0005414835521043164,0.00021877042176681328,0.0006403798143362569
59,1456704185801882,0.0008643774989575288,0.0004944585130084303,0.00024479273356274074,0.0006786909626408326
60,1456704185822918,0.0008801511009999188,0.00044492498334374245,0.0002375600167589194,0.0006629792153813506
61,1456704185839889,0.000811442801195203,0.0004133529087342966,0.00020538251753281483,0.0006116442702180558
62,1456704185862136,0.0006757159455105822,0.000413017593461944,0.0001769006302868736,0.0005577700755631081
63,1456704185882507,0.0005054552181785351,0.00044453790805721574,0.0001918068397051483,0.0005350737385834199
64,1456704185899536,0.00034139042535357946,0.0004959546660022135,0.0002855801732494399,0.0005629599754239227
65,1456704185921314,0.00022568078477690844,0.0005486421424015306,0.00047396985329831333,0.0006374594167990299
66,1456704185942511,0.0001945312259465866,0.0005859365977131283,0.000743522625989105,0.0007320823821320361
67,1456704185959519,0.00026987277095331756,0.0005999390277251309,0.0010523593279206638,0.0008084197346659404
68,1456704185981221,0.0004517625126446412,0.0005933684862523015,0.0013412806771429574,0.0008322069270426896
69,1456704186003222,0.0007148181873608299,0.0005762993965875878,0.0015509993359318311,0.0007879803823537727
70,1456704186019222,0.001011550569241979,0.0005603029391780771,0.001639145512673849,0.0006858245015510654
71,1456704186049224,0.001282987963483765,0.0005538052870875048,0.0015915978846687841,0.0005573571304203702
72,1456704186062732,0.0014738932580802093,0.0005616715498161781,0.0014254013096873985,0.00044330074561181295
73,1456704186079248,0.0015476145231394596,0.0005889906359769597,0.00118310019368292,0.000378822458165411
74,1456704186101249,0.0014951512876410272,0.0006453503314523157,0.0009201604344236386,0.0003832003834518444
75,1456704186122255,0.001334865737688737,0.0007445583670256155,0.0006889924734410886,0.0004573407952643027
76,1456704186139251,0.0011031692283428652,0.0008975346265371814,0.0005249688392014242,0.0005883230858767302
77,1456704186161757,0.0008408812818211093,0.0011013788865522425,0.0004401951332549273,0.0007571578317103083
78,1456704186182263,0.0005821553379765538,0.001331574241399863,0.00042808851402218113,0.0009456161615213183
79,1456704186199265,0.0003510263363762953,0.001543929394241167,0.0004766527482685233,0.001139593040536635
80,1456704186221266,0.00016572432394838487,0.0016882574245978307,0.0005834715052031946,0.0013285104525606211
81,1456704186242268,4.6381799327129506e-05,0.0017296983499190577,0.0007636806570432744,0.0015020128211459486
82,1456704186259776,2.0459375218982423e-05,0.0016691357526901593,0.0010446793898717336,0.001646565910781075
83,1456704186281292,0.00012191806785285439,0.0015529676575895925,0.0014474086178593317,0.0017450875816743977
84,1456704186302293,0.00038287774034432876,0.0014649624872569496,0.001961458796297776,0.001781565924693962
85,1456704186326295,0.0008191444371899139,0.0014990683241781827,0.0025267235771522624,0.0017495651416448983
86,1456704186341296,0.0014140264286462865,0.0017209083046143023,0.003034454813810641,0.00165988554393847
87,1456704186362818,0.002108298723831171,0.002133967121980605,0.0033539698503076043,0.001541075733102938
88,1456704186379338,0.0028053879162417508,0.002668515245520569,0.003379731465173942,0.0014294809489878314
89,1456704186401340,0.0033957746319553677,0.0032027195197173257,0.003081850741277705,0.0013526688448636485
90,1456704186422346,0.0037932418065115842,0.00360865312263681,0.0025371727965599698,0.0013165632237091712
91,1456704186439341,0.0039653208202078075,0.0038015376610945778,0.0019222393443557658,0.0013061235161676943
92,1456704186462094,0.003940326050952969,0.003768862345250859,0.0014634555856339866,0.0013004983065170199
93,1456704186482752,0.0037856450243612984,0.003567554068573688,0.0013584507853643504,0.0012924385509170487
94,1456704186505761,0.0035692611526977973,0.0032933097809649033,0.00169766622634149,0.0012972671587195422
95,1456704186521555,0.0033279246497888624,0.0030374854520489043,0.0024192174522045242,0.0013429145634707045
96,1456704186544557,0.0030621510412056478,0.0028503612057396445,0.0033196184627947967,0.0014457324678514964
97,1456704186566234,0.0027594100515613957,0.0027258497242202257,0.004120447498673468,0.0015882419049309709
98,1456704186581866,0.002424845625533794,0.0026127824779225432,0.004565658934663963,0.0017160960907998898
99,1456704186604865,0.0020931774733625526,0.00244506308883655,0.004509353035174117,0.0017597661434238044
100,1456704186626206,0.0018125514393830897,0.0021747184316145488,0.003958704625423772,0.001669118043678792
101,1456704186641868,0.001614812478545706,0.001793431815165509,0.0030587150450852073,0.001439701480177939
102,1456704186664678,0.0014959212338695798,0.0013361508438790393,0.0020313655220889223,0.001115982462969659
103,1456704186686228,0.001420270032665666,0.0008682133211053607,0.0010981932550046768,0.000772625158990244
104,1456704186701231,0.001344264171589014,0.0004626701425490487,0.00041668607004043487,0.0004866397286324356
105,1456704186724233,0.0012415855954553815,0.00017698701818828674,4.986311746754137e-05,0.00031377285414879914
106,1456704186746011,0.0011132615784244114,3.7129895577591175e-05,-2.7865177601670744e-05,0.000275935430673997
107,1456704186762021,0.0009782342735981412,3.277363859166157e-05,0.00010072403563151093,0.00036012146952321613
108,1456704186784317,0.0008542601160311599,0.00012309114657583993,0.00033550166790295466,0.0005263118286282549
109,1456704186805547,0.000744294098222291,0.0002503191283956284,0.0005915753047278924,0.0007210388649871439
110,1456704186821319,0.0006374587469619282,0.00035736124890218624,0.0008157235910110773,0.0008927310770900503
111,1456704186844321,0.0005220701345071704,0.00040478523094417845,0.000986148358990641,0.0010044210872069091
112,1456704186865842,0.00039994788327101844,0.00038189021006487193,0.0011015667577344056,0.0010400553255478756
113,1456704186881349,0.00029175745533012947,0.00030759319366275493,0.0011680270891059612,0.001003284457841554
114,1456704186904350,0.0002304285777697119,0.00022061829460327036,0.0011899043011934529,0.0009111021307198307
115,1456704186925562,0.00024712097360598807,0.00016327781159599118,0.001167461130211912,0.0007865744192895957
116,1456704186941353,0.0003571523033186519,0.00016581139938570496,0.00109970538254311,0.0006537779155423106
117,1456704186964576,0.0005520281767658352,0.00023715134453028555,0.0009892797756982628,0.0005351612215286099
118,1456704186986062,0.0008004757957930913,0.0003643366581776001,0.0008458798431132211,0.00044959343005040694
119,1456704187002065,0.0010575831790275699,0.0005189552722637379,0.0006860384855758957,0.0004098659933772603
120,1456704187024804,0.0012777883626856417,0.0006666501055071492,0.0005294734754032964,0.0004201554719125806
121,1456704187045805,0.0014261245795764868,0.0007756876210088315,0.0003941841396357754,0.00047471403372949017
122,1456704187061830,0.001483850566559576,0.0008226524459361635,0.0002927804437265612,0.0005584142020485877
123,1456704187084839,0.0014482302063642037,0.0007958994825002486,0.0002312046227436928,0.0006490698866079825
124,1456704187106181,0.0013291042584338546,0.0006982922633845949,0.00020943292313637988,0.0007213949837485824
125,1456704187121842,0.001145381253105213,0.0005493424767614597,0.00022311813361846966,0.0007524223080042473
126,1456704187144878,0.0009231700465812402,0.0003848920663433394,0.0002654107081174289,0.0007276670091131094
127,1456704187165656,0.0006953146878119494,0.00025217437185606957,0.0003285373293275419,0.0006465700253513259
128,1456704187182200,0.0005004738713241379,0.00019982210847062807,0.00040470307027121644,0.0005253004059021034
129,1456704187204214,0.00037933760394981956,0.0002647859005452188,0.0004859345702360228,0.00039513355843593246
130,1456704187226214,0.0003668263759072704,0.0004598463230537467,0.0005630410438983936,0.00029558282001166715
131,1456704187241175,0.0004818556767270155,0.0007659321494185408,0.0006246882133954233,0.0002633037811918129
132,1456704187264700,0.0007185651777180549,0.0011326494984414581,0.0006579915289658363,0.00031993724319822345
133,1456704187285680,0.0010430174755200676,0.0014883297303239654,0.0006515822633650198,0.000463251036872203
134,1456704187303421,0.0013975537189097195,0.001758091623588436,0.0006008143469095312,0.0006652249363486399
135,1456704187324422,0.0017128359754857879,0.001885748135531721,0.0005131859652185305,0.0008784202456970161
136,1456704187345445,0.0019256715172022347,0.0018534296494879638,0.0004109892220922847,0.0010492491874163502
137,1456704187361934,0.001998376844490226,0.0016919607487387793,0.00032844255405634813,0.0011344538247761566
138,1456704187384440,0.0019329696844290155,0.0014761594586662913,0.00030239227312684727,0.0011156088671331467
139,1456704187413442,0.001772966165529554,0.0013032815138821153,0.00035866359679260975,0.0010063236280191097
140,1456704187421442,0.0015891137233590182,0.0012596149961479727,0.0004990957390037121,0.0008486796905906852
141,1456704187444444,0.0014526073675921963,0.0013872333847284144,0.000695502829230502,0.0006992279061350202
142,1456704187466966,0.0014066388915898414,0.0016655559250596155,0.0008949519989977099,0.0006092367782053607
143,1456704187480980,0.0014496815803586756,0.0020170366754096412,0.0010361052691146581,0.0006066751235614886
144,1456704187505114,0.0015391100260862516,0.0023348054607010274,0.001071050411747114,0.0006870003917566421
145,1456704187527112,0.0016137601522309584,0.00251984248960507,0.0009838848191525236,0.0008163413514038588
146,1456704187541209,0.0016246054042544774,0.0025129071946759533,0.0007981971445535071,0.000945817418009996
147,1456704187565100,0.0015588675062468645,0.002311516395655303,0.0005702804438902525,0.0010313753874966508
148,1456704187586217,0.0014459186273800705,0.001969048894528528,0.0003709864426190987,0.0010509205850816133
149,1456704187601218,0.00134170837470065,0.0015776294845835613,0.00026335323847301295,0.001011012297576745
150,1456704187624219,0.0012990942214307834,0.001239600165490047,0.00028365416563185566,0.000940019950209776
151,1456704187646232,0.0013394900474772836,0.0010357144367385614,0.00043102030857666666,0.0008718356363520659
152,1456704187663939,0.001441101571336133,0.0010004133153361059,0.0006675228737498483,0.0008292705224555723
153,1456704187685157,0.0015492629597187483,0.0011130198713566568,0.0009282590620873377,0.0008152418830015332
154,1456704187707158,0.0016013770214685992,0.0013078411100282752,0.0011394107513418585,0.0008142467757919317
155,1456704187728159,0.001552401428804089,0.0014984736749716035,0.0012401000563272133,0.0008014711067036443
156,1456704187745160,0.0013901773641788325,0.0016062079985208646,0.0012011360302968109,0.0007547809978830445
157,1456704187766673,0.0011374660376011199,0.0015823237319066339,0.001033099757416792,0.0006645954825093637
158,1456704187788179,0.0008425958656417526,0.0014184529326788343,0.0007801169884112125,0.0005375827496872165
159,1456704187805180,0.0005627914300842729,0.0011442031500899833,0.0005024875983062651,0.00039316161418963096
160,1456704187827183,0.0003461861546515445,0.0008144108404758608,0.0002563882612773725,0.00025575384329638287
161,1456704187847185,0.00021939836109257618,0.0004905674204521199,7.904413872492861e-05,0.0001473380457281602
162,1456704187864910,0.00018482118640741397,0.00022283542735638577,-1.62196105360913e-05,8.308921705517622e-05
163,1456704187886418,0.00022638311701059802,3.893101679094819e-05,-3.58412096566385e-05,7.003603529680357e-05
164,1456704187907427,0.0003185349237041235,-5.7210439498340075e-05,2.8020985597690943e-06,0.00010709501802927565
165,1456704187924421,0.0004333792880420303,-7.87427731356976e-05,7.984136299398254e-05,0.00018515387003347316
166,1456704187946424,0.0005443628363565367,-4.5960271151317566e-05,0.0001777915300299998,0.00028741218038487736
167,1456704187967877,0.0006285310830642909,2.199776884773914e-05,0.00028253821631637463,0.000391496268464662
168,1456704187984661,0.0006699341973077852,0.00011094385760057726,0.00038227704821593487,0.0004744564766360432
169,1456704188006892,0.0006639885454936853,0.0002109955303494448,0.0004666435319332143,0.0005195474825064844
170,1456704188027900,0.0006194189731002897,0.00031382083863817667,0.0005270790164811735,0.0005215035715832105
171,1456704188044664,0.0005545349466811034,0.0004106552162992435,0.0005579276116759712,0.00048707507923465416
172,1456704188067112,0.0004885316291318449,0.0004925654488152924,0.0005571611014757409,0.00043034292086693225
173,1456704188087833,0.0004327510382881406,0.0005521423264361454,0.0005262332902978503,0.00036576029849823115
174,1456704188104818,0.0003873268304690215,0.0005845548011023131,0.0004694649192311168,0.00030313819590419163
175,1456704188126853,0.00034477096532902445,0.0005869590276322285,0.00039360901041384004,0.0002468611626611733
176,1456704188147612,0.0002972581967317226,0.0005575689932549907,0.0003077850379619317,0.00019833865367165318
177,1456704188171861,0.00024260124506421242,0.0004966032216231345,0.00022338377817476964,0.00015892088762131914
178,1456704188186848,0.00018589784851960018,0.0004095563388923275,0.00015332553522844452,0.00013122423859390217
179,1456704188208116,0.00013704228444467523,0.0003105210952736541,0.00011032210108604887,0.00011860031808879857
180,1456704188224850,0.00010623754838702335,0.00022237988210446652,0.00010439244005627596,0.00012360257005572496
181,1456704188246852,9.98821786328262e-05,0.00017244435871640982,0.00014043549294553493,0.0001463922613425938
182,1456704188268093,0.00011843456188903473,0.00018489746940143323,0.0002167409024086667,0.00018370784504315638
183,1456704188285105,0.00015667455449049054,0.0002730312055314244,0.00032486343200997347,0.00022877139827160483
184,1456704188307105,0.00020568788409432167,0.0004340485270879329,0.00045072124060510074,0.0002723014327311849
185,1456704188328103,0.00025539856221876964,0.000647875113147347,0.0005765271345555923,0.00030448305287293463
186,1456704188345105,0.0002967241998026601,0.0008801241307931224,0.0006832645192541446,0.00031737242037131974
187,1456704188367104,0.00032308371649542413,0.0010886235740540217,0.0007536468814370265,0.00030703887733155163
188,1456704188390118,0.0003314504355650328,0.0012326303242240215,0.0007756069626955026,0.00027488511336385703
189,1456704188411119,0.00032300312438494715,0.0012836014392706386,0.0007461611731978546,0.000227815884207371
190,1456704188427120,0.0003028911391693316,0.0012357218103771046,0.0006748732753921835,0.00017702459715295224
191,1456704188449122,0.0002784775733721896,0.0011130783283044628,0.0005852520567114853,0.00013528601325735437
192,1456704188464643,0.0002561957503020973,0.0009690924976745931,0.0005119162021658206,0.00011312027018533491
193,1456704188486161,0.00023838298324345712,0.0008744370561069596,0.0004921506980343665,0.00011498353631737672
194,1456704188509162,0.0002220137976738467,0.0008938576713049057,0.000552924403872133,0.00013716920062793123
195,1456704188524183,0.0002005180166343591,0.001059127419221431,0.0006977626094734869,0.00016880247547188898
196,1456704188546165,0.00016830111989185828,0.0013504131486911603,0.0009001450581792122,0.0001961623420552148
197,1456704188569721,0.00012617448782096825,0.0016969749402963585,0.001108967223519524,0.00020902005963393635
198,1456704188586204,8.532189321394891e-05,0.0019998872596013566,0.001266205490991809,0.00020633738020542556
199,1456704188606206,6.771238938424387e-05,0.0021688410527514117,0.0013298360209166948,0.00019826572933492176
200,1456704188629207,0.00010168453266071156,0.002157837743545121,0.0012911365242589603,0.00020265903291929736
201,1456704188646208,0.0002126856696610156,0.0019842175404095348,0.0011778513777184955,0.0002370700718331162
202,1456704188666728,0.00041118671137371364,0.0017222007892150827,0.001041922174933866,0.0003098622550200173
203,1456704188689249,0.0006823741339479782,0.0014730976914293882,0.0009379065438046806,0.0004148127273768122
204,1456704188706285,0.0009835943052181417,0.0013245008831319742,0.0009016019797092702,0.000531912453714202
205,1456704188726251,0.0012534230991765687,0.001315490094912331,0.000936990771146819,0.0006339956808102616
206,1456704188749253,0.0014305075401858396,0.00142245000644555,0.001015714693612928,0.0006960614929006564
207,1456704188766810,0.0014744507241497191,0.0015714454200414995,0.001088937584740707,0.000703283655665014
208,1456704188785299,0.001379589934278955,0.0016710696557662157,0.001107026286948372,0.0006551059131574871
209,1456704188808300,0.0011763200944939786,0.0016500471650932912,0.0010389462164137524,0.0005648938129359948
210,1456704188830298,0.0009200186170098723,0.0014828108561809764,0.0008831864711173851,0.000455593114934367
211,1456704188845297,0.0006717982074006501,0.001194110342228128,0.0006663277066312802,0.00035225121559914323
212,1456704188868835,0.0004782697661888466,0.0008443643653578632,0.0004313475744588328,0.0002735708313119585
213,1456704188890340,0.0003585046958227502,0.0005049710795656237,0.00022181136736471805,0.00022611157278664884
214,1456704188905345,0.00030339692710069124,0.0002349110822266833,6.867039647144109e-05,0.00020407240167077384
215,1456704188928343,0.0002862959546733958,6.69373170793477e-05,-1.598496972158518e-05,0.00019451378415054978
216,1456704188950348,0.00027822642967499585,5.516921173207726e-06,-3.760204936769831e-05,0.0001847451022547517
217,1456704188965863,0.00025989114470219835,3.3242000490919945e-05,-1.2798400084327518e-05,0.00016777833745794553
218,1456704188988421,0.00022607997308932184,0.00012051014797886406,3.8320191482473546e-05,0.00014357081005607645
219,1456704189010391,0.00018304688451143932,0.00023458424772041832,9.816240837362477e-05,0.00011662491011617245
220,1456704189025392,0.00014249930770401923,0.00034637796604340877,0.00015462492777697774,9.233046496835357e-05
221,1456704189048424,0.00011591794436321948,0.00043471153615723846,0.00020119834055792505,7.434270777847014e-05
222,1456704189070909,0.00011114986581988005,0.0004881216675189487,0.0002352934150075238,6.392567341292396e-05
223,1456704189085425,0.00013128853856227095,0.0005043438438618874,0.00025616989023714994,6.0780550612867045e-05
224,1456704189108450,0.00017476881377758292,0.0004879787308642323,0.00026358320196886726,6.41956479248953e-05
225,1456704189130423,0.00023563196164459824,0.0004474502012129181,0.0002576219271116742,7.350493982183725e-05
226,1456704189145424,0.0003037530281769583,0.00039244324490107877,0.00023948537511081917,8.757129241724707e-05
227,1456704189168944,0.00036569949644337294,0.0003323300755648608,0.00021244700302168007,0.00010386286046955133
228,1456704189190667,0.0004070726751567204,0.0002753037166973334,0.00018218804503177723,0.00011809921627193758
229,1456704189205659,0.0004164840898693365,0.00022780129474103417,0.00015609061282750156,0.00012511356947523508
230,1456704189228687,0.00039007427066186967,0.00019431933398642625,0.00014168558791201877,0.00012077171615272036
231,1456704189251475,0.00033443419683802477,0.00017818288169392445,0.0001448851894738959,0.00010407572852007004
232,1456704189265911,0.00026593566358572155,0.00018345957902076888,0.0001686774178498553,7.839666754379119e-05
233,1456704189288669,0.00020620719464599924,0.0002169741815827636,0.0002126033978602607,5.119063483744676e-05
234,1456704189311773,0.00017574668080612456,0.00028833371260176996,0.0002727987412475832,3.225526684436895e-05
235,1456704189326774,0.00018864553731523536,0.0004063975398650074,0.00034214786835565854,3.1159584452744174e-05
236,1456704189348436,0.0002503596097926747,0.0005729058377183726,0.0004104986569434298,5.4705953010482486e-05
237,1456704189380730,0.00035836909587364044,0.0007764468406923042,0.00046553951481820505,0.0001051947980173488
238,1456704189386017,0.0005040585101217303,0.0009906127465368919,0.0004951175361944872,0.00017996219559601045
239,1456704189409067,0.0006741355622788709,0.0011785454862459537,0.000491199174044616,0.00027220070618726877
240,1456704189431738,0.0008511136096370767,0.0013033465094979327,0.00045466978935991797,0.0003725852119343337
241,1456704189445734,0.0010137991909836862,0.00134148963125277,0.0003991913566917551,0.00047099648435567
242,1456704189468749,0.001139435954000011,0.001294850822622897,0.00035176198555047204,0.0005578672825370935
243,1456704189490967,0.0012087631711821508,0.0011961999047099216,0.0003478788238159151,0.0006252000497387767
244,1456704189507064,0.001213766312937666,0.0011036952826900261,0.00042072274796413047,0.0006676993936401965
245,1456704189528968,0.001165622752628276,0.0010832208728908544,0.0005865829114179423,0.0006843794826392295
246,1456704189551971,0.0010981228427698632,0.001183141481075508,0.0008320288170262727,0.0006803308285809253
247,1456704189568165,0.0010614273630876515,0.0014116963830748072,0.0011102424910903394,0.000667327700150327
248,1456704189589062,0.0011044115095839014,0.0017286854713617638,0.0013519658178565571,0.0006614898370429567
249,1456704189611028,0.0012510024249597568,0.002057470369877327,0.0014897855366265238,0.0006773544683147394
250,1456704189628067,0.0014827525835325497,0.002312639449236236,0.0014860738584482002,0.0007204812290376583
251,1456704189649063,0.0017401451558445604,0.0024300681871972534,0.0013508266814544587,0.000783182686568878
252,1456704189671761,0.001946062979106922,0.0023859690077896955,0.0011396644417819707,0.0008474149509926456
253,1456704189687241,0.002041138956441043,0.0021992993364988852,0.0009321383685754254,0.0008944965396587933
254,1456704189708467,0.002011792541308041,0.0019207145799244282,0.0007999319106265525,0.0009159762996211457
255,1456704189730246,0.0018947239352187296,0.0016149910895592973,0.0007786433920182411,0.0009181452848063387
256,1456704189747247,0.001755381762077904,0.0013425810959375717,0.0008548784386702023,0.0009164730968000765
257,1456704189768539,0.0016532937379474461,0.0011441273775909472,0.0009740385335848018,0.000923305543362728
258,1456704189791843,0.0016137784431263377,0.0010316920440838543,0.0010653071800215063,0.000937365868520493
259,1456704189807551,0.001619977458077112,0.0009898290110318204,0.0010720411633812232,0.0009426556448614685
260,1456704189828849,0.0016264331124530987,0.0009861829268939142,0.0009731061535523728,0.0009174936004207629
261,1456704189851559,0.001584154037759095,0.0009869122598096369,0.0007863730431962715,0.0008473005034924561
262,1456704189866848,0.0014636532327698482,0.0009701181521992623,0.0005558770486242616,0.0007333403712086365
263,1456704189889110,0.0012670052007259546,0.0009314994433881068,0.0003317779570481796,0.0005937981148712749
264,1456704189912102,0.0010266961498523268,0.0008802075825726236,0.00015321495447245925,0.00045802760397133406
265,1456704189927858,0.0007931031179739827,0.0008282070406039159,3.98656896247766e-05,0.000356493691106127
266,1456704189948859,0.0006149556734624149,0.0007802412390964292,-7.571140747059543e-06,0.00030949805055713054
267,1456704189971887,0.0005200393149566919,0.0007306939616408928,-1.4632604006298814e-06,0.0003187688252769293
268,1456704189993894,0.0005045034190562449,0.0006687875806660592,3.9894797033174555e-05,0.0003659942796263348
269,1456704190009012,0.0005358454194022572,0.0005882193522046738,9.790747279656605e-05,0.00041978897043448964
270,1456704190030896,0.0005681820304250408,0.0004947665738204841,0.00015701097605230063,0.00044839589888547916
271,1456704190053900,0.0005624625445731158,0.000406840187241279,0.0002061640363273925,0.00043237645578467936
272,1456704190076635,0.0005021186185618122,0.0003483606476053401,0.0002391613380307987,0.00037159177517315207
273,1456704190091634,0.00039750298966447205,0.00033776886628275913,0.000254103370326374,0.0002837818117400876
274,1456704190113550,0.0002785228071912354,0.00037873001423511957,0.0002521617471713581,0.00019610009395524218
275,1456704190128549,0.00018031933533445301,0.0004566807204554619,0.00023598995979668476,0.00013383495199723714
276,1456704190151345,0.0001289041905483297,0.0005424673880160189,0.000208438185213494,0.00011108868892676877
277,1456704190173563,0.00013225462508741255,0.0006016833454231249,0.00017217803280822827,0.00012669060043511376
278,1456704190188078,0.0001791490797186781,0.0006065461652825818,0.00013031269264617438,0.00016615927556930672
279,1456704190211113,0.00024479074689533615,0.0005462789134359966,8.737838182609582e-05,0.0002082066730262772
280,1456704190233073,0.0003002555177768856,0.0004322603460659353,4.983510375725174e-05,0.00023291292210922266
281,1456704190248074,0.0003223999530732173,0.0002959580953669105,2.54272498333137e-05,0.00022863241224113125
282,1456704190271586,0.0003015423432476934,0.00018026956404990798,2.143523102182715e-05,0.00019562649154184576
283,1456704190293091,0.0002450992939942284,0.00012709826836146545,4.2398394590003314e-05,0.0001456970642779752
284,1456704190308092,0.0001760925448490313,0.000164926011949005,8.812241982643526e-05,9.821979107191018e-05
285,1456704190331093,0.00012643405171676572,0.00029985397032628047,0.00015271961862234966,7.382012540131033e-05
286,1456704190355094,0.00012645844629594955,0.0005125316605897144,0.00022516276811633366,8.750740131471914e-05
287,1456704190368985,0.00019383408935463834,0.0007619538447026433,0.0002914514850269506,0.000143289517384191
288,1456704190392080,0.0003258059120289228,0.0009956071649419365,0.0003381247744620104,0.0002319949038039409
289,1456704190412998,0.0004980378846463554,0.0011640747869990247,0.000356561011587528,0.00033319529286353306
290,1456704190428998,0.0006711641267158993,0.0012368660267833005,0.00034717963165076764,0.00042089995743043433
291,1456704190451006,0.0008032749655233935,0.0012149467286963972,0.00032221915665553197,0.0004714163521012507
292,1456704190474034,0.0008641092401237957,0.0011348545782733067,0.0003054044111845728,0.0004708968488093228
293,1456704190490007,0.0008457121433937449,0.0010604893184604077,0.0003269783822098189,0.00042001226149813764
294,1456704190512009,0.0007652404868047492,0.0010623726071876103,0.0004137448598544396,0.0003340463668991727
295,1456704190534071,0.0006583705603861808,0.0011898118594269964,0.0005761300674767124,0.00023826381612699927
296,1456704190550012,0.0005656625333920392,0.0014466533282601764,0.0007972217132045281,0.00016009831810653784
297,1456704190571809,0.0005176585082388628,0.0017825350818813483,0.0010304883405771632,0.0001208030147720886
298,1456704190593817,0.0005253212719531649,0.0021061588303064732,0.0012110206925865369,0.0001292305384262506
299,1456704190610818,0.000579649837175696,0.0023168237655227767,0.0012789024708377023,0.00017958072828607805
300,1456704190631819,0.0006595712184438746,0.0023414421644159006,0.0012056705543239945,0.00025389546521091853
301,1456704190654071,0.0007437087261376512,0.002162122312534786,0.0010111036013700173,0.00032902515724571335
302,1456704190670616,0.0008209526438409977,0.001824410803608932,0.0007610082949059382,0.00038639106722490574
303,1456704190691725,0.0008957635165783476,0.001424105567512469,0.0005454532749356308,0.00042103190731155227
304,1456704190713411,0.0009855840773035794,0.0010772254506142265,0.0004458567559293541,0.00044523880084006997
305,1456704190730413,0.001110373867114476,0.0008824140816798498,0.0005039550039396478,0.00048343121322139354
306,1456704190758421,0.0012785921275675202,0.0008880192794181096,0.0007046991420290632,0.0005593418033874725
307,1456704190774014,0.0014772159807672025,0.0010759155317932086,0.0009799886523437723,0.000681567326173276
308,1456704190790939,0.0016719586294170897,0.0013687775824192097,0.0012327378009999175,0.0008353506523459017
309,1456704190811940,0.001818185024115452,0.0016578991399354224,0.0013726549931650854,0.0009855510361428059
310,1456704190841718,0.001877246681136781,0.0018399168808903726,0.0013491874250677913,0.0010897249546094586
311,1456704190850713,0.0018302568691125655,0.0018483979726210047,0.0011675412699585176,0.001114565696064227
312,1456704190871766,0.0016828886566620667,0.0016705549090164475,0.0008818404738001284,0.0010475509875328818
313,1456704190893711,0.0014604362933473545,0.0013459110242116498,0.0005707301199950398,0.0008996701280718385
314,1456704190910452,0.0011982705873756808,0.0009492156425888811,0.00030799072484331597,0.0007005983960774803
315,1456704190931675,0.0009333493278290247,0.000564423229371893,0.00014047316047937725,0.0004898338787777606
316,1456704190953784,0.0006981747190856963,0.00025955801336824603,7.973983047044396e-05,0.000306329395680208
317,1456704190970783,0.0005158818600186271,7.119587338163393e-05,0.00010677134622087113,0.00017852365356864607
318,1456704190991774,0.0003964444340063915,1.9603837307739585e-06,0.0001846589614006773,0.00011733080735145108
319,1456704191022017,0.0003355955508775522,2.862545664109928e-05,0.0002732735141144518,0.00011461688731055432
320,1456704191030785,0.0003174351989031834,0.00011548120900208799,0.00034124975756785194,0.00014790351709489125
321,1456704191052021,0.0003201913979542227,0.00022757533266578851,0.0003726733504253608,0.00018949739281546896
322,1456704191073705,0.00032355529152260136,0.0003397799025050608,0.00036774443646507435,0.00021642389319542874
323,1456704191090206,0.0003152237490088443,0.00043959856104582284,0.00033828466027537013,0.0002173368389996057
324,1456704191112207,0.00029400441077646276,0.000524106832851533,0.0003003344446288883,0.0001940984974530614
325,1456704191134209,0.0002679733801119762,0.0005937525522434205,0.0002669275003179525,0.00015819302404041522
326,1456704191149211,0.0002485926910299318,0.0006467046937094097,0.00024378827754696584,0.00012426081347369295
327,1456704191172046,0.00024387598576990652,0.0006764737454326931,0.00022911226878421918,0.00010386050071205492
328,1456704191193847,0.00025412188007950445,0.0006734707098326096,0.00021665690917950156,0.00010190040338481097
329,1456704191216852,0.0002721292358190103,0.0006293731990241838,0.0002001679770849441,0.00011652689565262058
330,1456704191231567,0.0002871809460770362,0.0005422387322366738,0.00017706027491085327,0.00014150708906988187
331,1456704191253852,0.00029005600162764443,0.0004201037096414921,0.00014995564363424482,0.00016920941900777233
332,1456704191276398,0.000276193456069136,0.0002812904782543323,0.00012574062829556,0.00019259821636191928
333,1456704191291411,0.0002459187861197033,0.00015100119312014127,0.00011289332108271084,0.00020586898921819423
334,1456704191313408,0.00020289947506660607,5.558411519300022e-05,0.00011847906892773426,0.000204547683841113
335,1456704191336409,0.00015289816194383958,1.6901919999381323e-05,0.00014604182044735263,0.00018619573425124976
336,1456704191351409,0.00010390332121889916,4.870610592429548e-05,0.0001948182548051199,0.00015210217639589915
337,1456704191373928,6.69841639927787e-05,0.0001553950390376605,0.000259970122837687,0.00010913067743501147
338,1456704191389762,5.628070084664272e-05,0.0003322738841037851,0.0003333627152052288,7.018389361690499e-05
339,1456704191412764,8.695814816963649e-05,0.000566154921156499,0.0004047302386391152,5.208898118842434e-05
340,1456704191434074,0.00017114624736327166,0.0008357497005710423,0.00046344819415770536,7.088535609834527e-05
341,1456704191449767,0.000312972394512823,0.0011123949901541135,0.0005012074040132476,0.00013583881238153902
342,1456704191472566,0.000504393833627072,0.0013626346579521471,0.0005154941191812399,0.0002443671758572245
343,1456704191501877,0.0007237122172264203,0.0015542343831432938,0.0005130126277623754,0.0003800993615677569
344,1456704191516876,0.0009383927887848486,0.0016656841140216417,0.0005113612177143774,0.000515500578189181
345,1456704191532576,0.0011127909928552993,0.0016964117270924775,0.0005368882498309547,0.0006190977147039999
346,1456704191553804,0.001219403922755416,0.0016723047432217974,0.0006172760486553286,0.0006656447822032354
347,1456704191576969,0.0012497965917569263,0.001640899270678276,0.0007694120171057156,0.000646023371286817
348,1456704191592999,0.0012198566569090945,0.0016543773410860301,0.0009862939561149245,0.0005729107105263125
349,1456704191613996,0.0011653212093768676,0.0017457784204638752,0.0012297354032921408,0.0004789219731509685
350,1456704191636997,0.0011280251465895657,0.001910453669775725,0.0014358933074516984,0.0004063439178214405
351,1456704191652996,0.001138692730799521,0.0021045112126634024,0.0015357891604798003,0.0003912504240674665
352,1456704191673722,0.001204541879051366,0.002262565643709013,0.0014841016107726933,0.0004482145181191116
353,1456704191696212,0.0013077159230355773,0.0023250417830969292,0.0012823072543495756,0.0005629036194279724
354,1456704191712227,0.0014152435588914748,0.002260549083359095,0.0009829991501854056,0.0006972236236077236
355,1456704191733499,0.0014957375392254011,0.00207419201971769,0.0006715746444301295,0.0008059320512163081
356,1456704191757215,0.0015345398812980212,0.0018018755915123394,0.00043346502003898356,0.000857321978050029
357,1456704191773090,0.0015393208484408244,0.001496522804785814,0.00032212487443812767,0.0008474048097291636
358,1456704191794067,0.0015332367777363062,0.0012126797494112825,0.0003416550298266368,0.0007998375088117482
359,1456704191817041,0.0015403032385987749,0.0009936995509738156,0.0004502593606584165,0.0007518009696472163
360,1456704191832075,0.001572029842669198,0.0008635396162364279,0.0005813656110832916,0.0007341328443251522
361,1456704191853049,0.0016221120212001109,0.000823858735232944,0.0006720264057735813,0.0007567278031226811
362,1456704191876851,0.0016698971135080294,0.000855866574334939,0.0006857143222802275,0.0008059942126373498
363,1456704191893059,0.0016887321772306812,0.0009258036761072471,0.0006203182745909,0.0008534916983159841
364,1456704191913062,0.0016544616192665296,0.0009935676570821583,0.0005005508385187853,0.0008693741535792871
365,1456704191937127,0.0015516774228464428,0.0010238124940493718,0.0003618520479044968,0.0008340431720428621
366,1456704191952063,0.0013782166642934159,0.000996390698620538,0.0002352551563042443,0.0007445876769020438
367,1456704191973854,0.00114815955536221,0.0009112873627184673,0.0001393187535717672,0.0006151425647765831
368,1456704191996370,0.0008907444513544267,0.0007855615318859066,7.979186093661988e-05,0.0004713291337665371
369,1456704192012370,0.000642717870534237,0.000644599743643981,5.38279589395027e-05,0.00034050323334808047
370,1456704192033668,0.00043641866913367625,0.0005128674997491223,5.4790774142062244e-05,0.00024188665930743712
371,1456704192056378,0.00028993328561329113,0.00040836398724422275,7.532309936674763e-05,0.0001812413703732733
372,1456704192072987,0.00020445567172858175,0.00034155370270992343,0.00010850956996610094,0.00015218845232246544
373,1456704192093878,0.00016921495159579448,0.00031664206513739456,0.00014810590156745206,0.0001424501144560593
374,1456704192116880,0.00017007233348876924,0.00033277950364660213,0.00018868441612273257,0.00014102506973091679
375,1456704192132887,0.0001965011244388433,0.00038448349049801647,0.00022586987350242644,0.0001426703845461114
376,1456704192153886,0.0002434455491923736,0.0004619325948030721,0.0002563848690338223,0.00014818526047178466
377,1456704192176899,0.00030815306048215366,0.0005516982202402643,0.00027769442730865774,0.00016135587450243755
378,1456704192192979,0.000385113383999341,0.0006378382793110698,0.0002874389411836018,0.00018485165688842084
379,1456704192213980,0.00046295404067111715,0.0007032476065797387,0.00028318687304947196,0.0002173764189169124
380,1456704192236984,0.0005255411244720923,0.0007316996651908085,0.0002630346101759663,0.0002532555749763534
381,1456704192258882,0.0005568835886820894,0.0007111362918072092,0.00022711241151899256,0.0002842091882387152
382,1456704192273399,0.0005472327877889473,0.0006378722289999161,0.00017929616049589496,0.0003021230749379493
383,1456704192296618,0.0004971575131957175,0.0005201231769090336,0.00012793676258228428,0.0003015173332395668
384,1456704192312620,0.00041767648662663793,0.0003788556907373728,8.474741952199789e-05,0.0002809416692946694
385,1456704192333956,0.00032681672896344544,0.00024486713435336915,6.201366643790436e-05,0.00024322541256781966
386,1456704192356629,0.0002446204468683864,0.00015260346717685898,6.922810844833307e-05,0.00019492891657059988
387,1456704192372644,0.0001887555252322301,0.00013252302071908392,0.00011042817969058799,0.00014535976351093356
388,1456704192394973,0.0001719839305100947,0.00020422661426342556,0.00018300018133903307,0.00010535100958276659
389,1456704192416971,0.0002017005373807332,0.0003720388532284784,0.0002780742362830594,8.587211401814286e-05
390,1456704192433102,0.00028079672588478423,0.0006235855794340402,0.00038225885391678826,9.64464100968691e-05
391,1456704192455047,0.0004082882457831062,0.0009309006671847898,0.0004803492265063998,0.00014326102522264336
392,1456704192476767,0.0005782280438244454,0.0012535299913914502,0.0005586703055188148,0.00022698023191351538
393,1456704192492775,0.0007770104742104955,0.001544038416727301,0.0006087513454819442,0.00034076763675508704
394,1456704192515776,0.0009813511827246684,0.0017570659988569125,0.0006308505928106922,0.00046959451264532516
395,1456704192537041,0.0011601190214067618,0.0018620377522869476,0.0006363120689950781,0.0005919845329689007
396,1456704192552778,0.0012817868139869883,0.0018565289034034958,0.0006471008363271465,0.000684635185398478
397,1456704192575304,0.001326114668336029,0.0017739420005466102,0.0006908186692961944,0.0007291255431628378
398,1456704192595810,0.001295307420085305,0.0016785181045950344,0.0007907740654837797,0.0007186993862691966
399,1456704192611966,0.001218168432552423,0.0016448763591049435,0.0009534549834979331,0.0006623804307320087
400,1456704192635813,0.0011424565343138384,0.0017275882520411635,0.0011590271664275462,0.0005838637371606601
401,1456704192657032,0.0011162474076650832,0.0019343457990408435,0.0013617383107211137,0.000514173142579158
402,1456704192673071,0.0011662745184141735,0.002217524592735836,0.0015036986603489985,0.0004799857117244978
403,1456704192695335,0.00128498524861231,0.002490200314849015,0.0015379063530413122,0.000492615718770948
404,1456704192716664,0.0014344938034926366,0.0026591580400583672,0.0014495689505911174,0.0005436596249960029
405,1456704192738628,0.0015661708565421896,0.002659105522740872,0.0012643486937868639,0.0006105426882995142
406,1456704192755339,0.001645365297768324,0.002474065429316401,0.00103885760187796,0.0006695232041373641
407,1456704192775850,0.0016675634218253047,0.002139981701211794,0.0008378757870182718,0.0007086409317647801
408,1456704192798947,0.0016571450224892807,0.001730372545292868,0.0007088871111303404,0.0007325090226690392
409,1456704192815964,0.0016501451177268864,0.0013314394704232611,0.0006652299348779619,0.0007558192929956303
410,1456704192836964,0.0016717726227663918,0.001015173529877252,0.0006849398543450682,0.0007900182098662393
411,1456704192858959,0.0017217258693441595,0.0008193745507082648,0.0007249149302313142,0.0008324993796044555
412,1456704192875861,0.0017745709552659072,0.000741088895968726,0.0007424179167391837,0.0008658703837238739
413,1456704192896309,0.0017930876013547736,0.0007446789106093541,0.0007126224227686502,0.0008674083189109256
414,1456704192918525,0.0017455414502851353,0.0007800460204887086,0.0006344787441775755,0.0008217466907337671
415,1456704192935313,0.0016176005726139875,0.0008029625560545018,0.0005248722509505256,0.0007288698841141537
416,1456704192956626,0.0014155594696052241,0.0007890147036319413,0.0004070930552760765,0.0006042377133840069
417,1456704192980337,0.0011633462981446181,0.0007360015464542195,0.0003007270533671729,0.0004728424964315433
418,1456704192995336,0.0008962748141566901,0.0006560667269169733,0.00021712106640508238,0.0003605775360753569
419,1456704193016555,0.0006522843673554553,0.0005643729001602187,0.00016034072218683337,0.00028578312570691115
420,1456704193038551,0.0004617182981029913,0.0004716125015013989,0.00013057245199226268,0.0002534893830493104
421,1456704193055339,0.00033914049364498056,0.0003833016398487209,0.0001266193579718188,0.00025448089904560827
422,1456704193076945,0.00028111090090163926,0.0003035544814444427,0.00014607200552821904,0.0002697718116480092
423,1456704193098487,0.00027080244227280394,0.00023858472020489222,0.00018400583555138242,0.00027869175909704625
424,1456704193115354,0.0002863908108712319,0.00019657839706502654,0.00023201141210724805,0.0002669888025427668
425,1456704193136584,0.00030855943468355355,0.00018409238489177523,0.0002788191583798105,0.00023140908728116138
426,1456704193158643,0.00032425576929340867,0.00020179901697504941,0.00031261930148631105,0.000179171344931599
427,1456704193174945,0.0003270528447870416,0.00024247449720448351,0.00032423589812350404,0.0001233605827007523
428,1456704193196388,0.00031614498310465896,0.00029226226525659696,0.0003098954678429572,7.692676402852277e-05
429,1456704193218603,0.0002951752647967104,0.000334341953545976,0.0002724485606572023,4.797063134341146e-05
430,1456704193234391,0.00027049580466100947,0.0003534891678618512,0.00022051234064159058,3.778651229705611e-05
431,1456704193256399,0.00024823481926320416,0.0003404671236341516,0.00016588971910672066,4.1694722202873504e-05
432,1456704193279261,0.00023087685819461452,0.00029567096120872394,0.00012032477307750924,5.1735531553168396e-05
433,1456704193294256,0.00021536450361144785,0.00023117575486137232,9.278795323182509e-05,5.99535296343574e-05
434,1456704193318257,0.00019449747783714923,0.00016978116278604078,8.806980464559963e-05,6.113222683902041e-05
435,1456704193338545,0.00016156005488297533,0.00014003946987205194,0.0001067960727271408,5.429275793992818e-05
436,1456704193354260,0.00011595176304406313,0.00016800768540448707,0.00014635656589558567,4.283074933612257e-05
437,1456704193377788,6.672612528899796e-05,0.0002683983851937559,0.00020194619407191738,3.352602463599949e-05
438,1456704193398514,3.190006553662987e-05,0.00043840431602007246,0.0002671521428195287,3.471224690007265e-05
439,1456704193414298,3.33410504888603e-05,0.0006564857020995106,0.0003341541797434874,5.386611675001276e-05
440,1456704193445305,8.879829383084855e-05,0.0008867426429482149,0.0003941746006148746,9.501567965356987e-05
441,1456704193458300,0.0002037192233858102,0.0010879743098730315,0.0004388984757821842,0.0001566277337484273
442,1456704193474936,0.0003659181872135925,0.0012253426518564414,0.0004630984576086025,0.00023077070544846553
443,1456704193497571,0.0005458610674023318,0.0012816922428266972,0.0004678746792743731,0.000304186276209992
444,1456704193518804,0.0007039326468500276,0.001265184940691631,0.0004631035443082631,0.00036142532075549044
445,1456704193541800,0.0008034271754806548,0.0012101676919060505,0.0004672155483677556,0.000389498242086335
446,1456704193557804,0.0008249070967750729,0.001169198775105988,0.0005027067698439296,0.00038272073712533936
447,1456704193578807,0.0007756827464347163,0.0011963045689739335,0.0005873128918414048,0.0003458831735291068
448,1456704193593812,0.0006891250345605937,0.001325392402276697,0.0007235475077463236,0.0002939379563294442
449,1456704193617938,0.0006126798296356409,0.001552275909183542,0.000892003759415785,0.0002474498809481244
450,1456704193638930,0.0005891308915118006,0.0018301465585375475,0.0010538868283952374,0.00022500852911219623
451,1456704193654931,0.0006396830226864334,0.0020831450022814222,0.0011641030355095392,0.00023578719479512843
452,1456704193677324,0.0007571003624730417,0.0022331341022599565,0.0011898092287797569,0.00027610325580177655
453,1456704193698904,0.0009122815086370229,0.0022277688235836594,0.0011252413564507094,0.0003323214484018325
454,1456704193713833,0.0010707509557951371,0.0020581546515353382,0.0009950791722576691,0.00038911110544890046
455,1456704193737002,0.0012100279489956054,0.0017603349910568914,0.0008445382204093195,0.0004385844014544105
456,1456704193759002,0.001327857813678001,0.0014019770423644511,0.0007208852476139299,0.0004845545367550531
457,1456704193774346,0.0014365042472683385,0.0010604786280038574,0.0006546982734328975,0.0005386219597735044
458,1456704193796855,0.0015473629659721933,0.0008003671840197965,0.0006489336697745932,0.0006100293814207071
459,1456704193820002,0.001656547820690743,0.0006570066844487521,0.0006803986182347217,0.0006957137778737368
460,1456704193834965,0.001740820526168403,0.000630924675056458,0.0007125866899077434,0.0007773489182216107
461,1456704193856858,0.0017661639180913352,0.0006930059334778114,0.000713070934726652,0.0008279210713590512
462,1456704193878869,0.0017040160258125915,0.0007971113203744306,0.0006664034366398544,0.0008242560844019533
463,1456704193893994,0.0015462129480687931,0.0008953672508056391,0.0005769438371098806,0.000758162291433087
464,1456704193917054,0.0013107179640433411,0.000951868309347532,0.00046263305028359825,0.0006402902375222449
465,1456704193938996,0.0010361994512814248,0.0009510115388530834,0.0003452101694651302,0.0004959892893280296
466,1456704193961962,0.000769872087544713,0.0008976842675232518,0.00024226084026279115,0.0003566186642643393
467,1456704193977392,0.0005543856217103415,0.0008096698617621932,0.00016354727325710658,0.0002501764242937148
468,1456704193998609,0.00041700224401332775,0.0007066995636889102,0.00011125808335451709,0.0001935685575208225
469,1456704194021685,0.0003627217986987224,0.0006022922604373285,8.254094289493183e-05,0.00018808037331952953
470,1456704194037400,0.0003733811731607696,0.000502328911693694,7.265328822860317e-05,0.0002195510059852955
471,1456704194058408,0.0004142532217456885,0.0004096692899825798,7.747333733887185e-05,0.00026377565499321857
472,1456704194081919,0.0004469059602143295,0.00033020674490666287,9.459345441184754e-05,0.0002955212511985301
473,1456704194096921,0.00044367607522149976,0.00027530336998637223,0.00012286568268978263,0.000297661231838794
474,1456704194117921,0.0003976451631170028,0.00025871681829711364,0.0001609995436746167,0.00026674587348987465
475,1456704194141922,0.0003238214265027808,0.00029020912160867407,0.000206193134037147,0.00021300402181955374
476,1456704194157923,0.0002513622101960388,0.0003698942558379805,0.0002535654404302339,0.0001552776849658449
477,1456704194178932,0.0002106417887851037,0.00048623894181006955,0.000296599874527947,0.00011336808649206469
478,1456704194201994,0.00022075531506490716,0.0006181227648443258,0.0003283386140579418,0.00010091941605304835
479,1456704194216988,0.0002822147078779389,0.0007395263012219321,0.0003429001920649536,0.00012126189190841778
480,1456704194238986,0.00037699157734136284,0.0008250262105692847,0.00033694522189602673,0.00016712420219965976
481,1456704194260951,0.0004751232390886633,0.0008548468282522216,0.00031079303899674444,0.00022362021277115863
482,1456704194277457,0.0005450407342670158,0.0008189029762061325,0.00026891506795088233,0.00027305987675838115
483,1456704194299967,0.0005640123900004062,0.0007195505442022776,0.00021956969905449414,0.0003000193911780309
484,1456704194321983,0.0005253768158755068,0.0005726061094869495,0.00017348498838812043,0.0002953983590945999
485,1456704194336972,0.0004403300793794185,0.00040595829444461847,0.0001417477204589962,0.0002586159176648898
486,1456704194367516,0.00033388692552550886,0.00025529420888905133,0.0001333668475844174,0.00019761508303031572
487,1456704194380991,0.00023685772262377672,0.00015734490201395557,0.0001532122635506798,0.00012692385246563238
488,1456704194396992,0.00017718136753244352,0.00014218102263603856,0.00020096664665568195,6.446295543918193e-05
489,1456704194419992,0.00017367999631802953,0.00022664048389056603,0.00027129851079399754,2.7892636082016428e-05
490,1456704194441993,0.0002334514876569784,0.0004105250475766869,0.000354969596975407,3.1105168529346926e-05
491,1456704194456995,0.00035216388419904873,0.0006761392150297813,0.00044043356562857415,8.125176292914174e-05
492,1456704194480006,0.0005158001865427915,0.0009908561673937462,0.0005157071510574925,0.00017663047723371435
493,1456704194501300,0.0007029935812595574,0.0013121872848345765,0.0005705709270142363,0.00030584537248403717
494,1456704194517014,0.0008881005785513712,0.001595088868999124,0.0005991615813865558,0.00044875182255150347
495,1456704194540017,0.0010456794182080046,0.001801211201466198,0.0006026671107011051,0.0005796606346988596
496,1456704194562017,0.0011566217362229477,0.001908844256258791,0.0005912530117863371,0.0006728703030605453
497,1456704194577528,0.0012148254281809372,0.0019205733442394497,0.0005838040886569745,0.0007096875482727117
498,1456704194600037,0.0012315587263151046,0.0018643452388174273,0.0006040155620327356,0.0006848938283837855
499,1456704194622039,0.0012338318314038753,0.0017846860887496597,0.0006723673484895554,0.000609861242015864
500,1456704194637042,0.0012547195056636445,0.001725355615400968,0.0007958096836115851,0.0005101477456517375
501,1456704194660040,0.0013180838089342066,0.001711024621792468,0.0009597637325445239,0.00041765811547241066
502,1456704194682057,0.001425111619845568,0.0017385538704325584,0.0011280772688329218,0.0003601966339565122
503,1456704194697058,0.001550894575547848,0.0017836017051111,0.0012536201481167083,0.0003525004177636951
504,1456704194726297,0.0016538931387807293,0.0018176916192419522,0.0012959276728506325,0.00039181714458614485
505,1456704194742061,0.001693735937120064,0.0018235484780748706,0.0012372704269517343,0.00045912397027570746
506,1456704194757099,0.0016493954331468048,0.0017994235846803001,0.0010892696662339351,0.0005257214552072379
507,1456704194780074,0.0015308782320299988,0.0017529720316179739,0.0008881184991407712,0.0005637378500110432
508,1456704194801348,0.0013796643544648265,0.0016924495990478436,0.000682462346745444,0.000557125481698988
509,1456704194817086,0.001255605829867089,0.001622540475768065,0.0005198191729487743,0.0005083140515066189
510,1456704194840088,0.0012132021919771814,0.0015467976834298489,0.0004353584837913938,0.00043705520517883133
511,1456704194861130,0.0012772103867842437,0.0014733497172634371,0.0004441288766983837,0.00037188982382266897
512,1456704194877876,0.0014305662687532678,0.0014178840692231534,0.0005370333951835557,0.0003382717510815913
513,1456704194900881,0.001621759188497046,0.0013991941819338012,0.0006818968409162384,0.0003484979718475582
514,1456704194921883,0.0017869156103475438,0.0014278716852755484,0.0008314037072383178,0.0003973347730318128
515,1456704194937887,0.0018735036523695311,0.0014951487255157772,0.0009373169609169645,0.00046479593011279673
516,1456704194960623,0.0018546578001159858,0.0015709736818951886,0.0009661844292575818,0.0005247765732910378
517,1456704194981924,0.0017318146732031876,0.0016149727040332008,0.000909529195412079,0.0005557475189865513
518,1456704195003656,0.0015292334742974735,0.0015946351007539953,0.0007839325952457095,0.0005486034832326082
519,1456704195019657,0.0012841951659562235,0.0014997172084230802,0.0006218558478679335,0.0005083549949352233
520,1456704195041643,0.0010359568592208592,0.0013447522933490836,0.00045847650138684494,0.0004501091686476558
521,1456704195057650,0.0008171443536648129,0.0011596033388804163,0.0003206585238167268,0.0003927002210925993
522,1456704195079342,0.0006500742677882171,0.0009747565428922224,0.00022178579664412936,0.00035304623046741624
523,1456704195101295,0.0005465688940976894,0.0008095723612052006,0.00016263954794567832,0.00034200798285605514
524,1456704195117049,0.0005074657990590695,0.0006684980258021548,0.00013587776639851544,0.0003612646498942617
525,1456704195139050,0.0005204554856657967,0.0005453939668258409,0.00013106633700498094,0.00040159138955608425
526,1456704195161058,0.0005594166197453686,0.00043245121255517754,0.00013837338343715378,0.0004441899744230224
527,1456704195177812,0.0005897007906780831,0.00032873755649745473,0.0001506987147854768,0.0004662458523230829
528,1456704195206862,0.0005799386821963699,0.0002440652273281598,0.00016482724527443088,0.000449475332128107
529,1456704195222864,0.0005152987697054565,0.00019627982201732186,0.00018182130073239792,0.00038799591945826243
530,1456704195243860,0.00040483856549335237,0.00020340623137484753,0.00020614979222531062,0.00029157570742666995
531,1456704195259865,0.00027861708987140306,0.00027460882048382614,0.00024310681722078498,0.0001825927214846758
532,1456704195281916,0.00017603880611557042,0.00040416184319867657,0.0002951167705768234,8.821963813730945e-05
533,1456704195303237,0.00013119070963636697,0.0005708230402763959,0.0003586539020486886,3.134748008641758e-05
534,1456704195318919,0.0001613574542270631,0.0007426045449965651,0.0004236179480857592,2.3678609514252708e-05
535,1456704195341919,0.00026225452795846315,0.0008850509618876859,0.0004758444674672986,6.288366433166275e-05
536,1456704195362921,0.0004102298961068268,0.0009700768643590677,0.0005017376005352227,0.00013399252460996415
537,1456704195379426,0.000569604248434178,0.0009823488843513663,0.0004929300095997979,0.00021410122062153757
538,1456704195402933,0.0007027285369809572,0.0009213760414824881,0.00044908866863281003,0.00027903573881250766
539,1456704195422934,0.0007803089876948987,0.000799506585987383,0.00037816041467593763,0.0003103786645610766
540,1456704195438934,0.0007892250417070042,0.0006375753908982479,0.00029441827611442165,0.0003009693274314853
541,1456704195461936,0.0007349270805857181,0.0004600066361656102,0.0002150023113914524,0.00025694380180286345
542,1456704195483415,0.0006370014422102572,0.0002904019675719787,0.00015571276071342096,0.00019520362514027415
543,1456704195499541,0.0005198635339266342,0.00014831626870523843,0.00012721766019160413,0.00013697176198003294
544,1456704195523343,0.0004035260447082806,4.799315558192132e-05,0.00013317067372749293,9.992310059522394e-05
545,1456704195543628,0.00029915635272747724,-7.731601371279051e-07,0.00017109000838128028,9.207119304257251e-05
546,1456704195559346,0.00021055987511769337,9.150150754775424e-06,0.0002352773876303209,0.00010972227721403686
547,1456704195582848,0.00013889087660902977,8.292175556040477e-05,0.0003197782726362661,0.00013996388691242146
548,1456704195603848,8.684294454623029e-05,0.00022202277864369935,0.00041950205564026636,0.00016631989007781807
549,1456704195619854,6.024209756770486e-05,0.0004206979825014643,0.0005290221216677972,0.0001751417922036426
550,1456704195643586,6.699248556123048e-05,0.000662594450086437,0.0006401988439893891,0.00016036930831794187
551,1456704195663586,0.0001141187488027281,0.0009199286083116743,0.0007406371159527567,0.00012530640945123878
552,1456704195679598,0.00020363683547776034,0.0011566630216369646,0.0008147841948275862,8.135860451676835e-05
553,1456704195703864,0.00032825868226642955,0.0013357755521553264,0.0008483527910781253,4.457755314553067e-05
554,1456704195723863,0.00046873243004068836,0.0014291213759422025,0.0008350688015478811,3.116192522099348e-05
555,1456704195739610,0.0005951659495780352,0.00142687825507594,0.0007830260771916092,5.302696867333183e-05
556,1456704195762611,0.0006739780766102627,0.0013427228718284833,0.0007169690982046296,0.00011444201976246087
557,1456704195783832,0.0006798341379850537,0.0012115679128077673,0.0006735003834763307,0.00021053924932209968
558,1456704195799829,0.0006088343083377216,0.0010793008085106088,0.0006889772985477148,0.0003281083120595431
559,1456704195823832,0.0004869505425869138,0.000987769818027116,0.0007840178887547764,0.00044853869869807846
560,1456704195843834,0.0003678876175783488,0.000961299013902008,0.0009518425385623466,0.0005521993013424807
561,1456704195859833,0.00031800062234008076,0.0010009245987537723,0.0011572867838113199,0.0006231076058781259
562,1456704195883860,0.0003918904782021421,0.001088497025186059,0.0013482668160107799,0.0006525808218532776
563,1456704195903709,0.0006081432117220599,0.001197145479146064,0.0014746308305546574,0.0006407643990571782
564,1456704195919710,0.0009367781457725399,0.0013015888182945333,0.0015055771681211354,0.0005955607099496705
565,1456704195942931,0.0013061009771547507,0.0013835002711907942,0.0014385939937749223,0.0005295567587020749
566,1456704195963713,0.0016278101428795389,0.0014315696529487861,0.0012981206490696264,0.0004566222221940144
567,1456704195979723,0.0018296732600583787,0.0014393351622635432,0.001126673214986202,0.0003898729174152123
568,1456704196002853,0.0018805760508695964,0.0014042036613462175,0.0009723912481922014,0.00034126620940991384
569,1456704196023852,0.0017967662352809182,0.001328837690072288,0.0008756498061894918,0.0003214749482495677
570,1456704196038733,0.0016287456709646697,0.0012233108286322898,0.0008566256312051304,0.0003384812437946033
571,1456704196061850,0.0014385298188878018,0.0011051789174994354,0.0009072301033407212,0.0003946150835131374
572,1456704196083201,0.0012798088573616568,0.0009957190075995598,0.0009923561384568259,0.0004834483108705997
573,1456704196098979,0.0011876993563315528,0.0009132660338111643,0.0010629126678511208,0.0005889662558316207
574,1456704196121981,0.0011763032869597356,0.0008668202750151845,0.001076315265025851,0.0006887524217760739
575,1456704196142985,0.0012387534003504683,0.0008531785305309819,0.0010142644393735145,0.0007602954983520552
576,1456704196158983,0.0013475627123869852,0.000858933588366324,0.0008885372885219718,0.0007870593016740431
577,1456704196181993,0.001458108197577439,0.0008662158972393812,0.0007327916623707491,0.0007615021368225327
578,1456704196204998,0.0015191314519018885,0.000859176186765334,0.0005860498745685558,0.0006852657839358161
579,1456704196218999,0.00148951390693304,0.0008280106034075661,0.0004765347180704548,0.0005684877082831284
580,1456704196242001,0.0013542867754237457,0.0007694017033565197,0.0004126027983276133,0.0004288720713686873
581,1456704196265004,0.0011313090665981845,0.0006850066911445107,0.0003832072398455475,0.0002893195731463587
582,1456704196279549,0.0008653021608610595,0.0005804149076934316,0.00036603188576955195,0.00017328738911117004
583,1456704196302523,0.0006131369921860236,0.00046531558193512764,0.0003387123698682667,9.898346664464445e-05
584,1456704196325524,0.0004275010417861034,0.0003535282056422177,0.00028820376529512074,7.46366003282436e-05
585,1456704196339552,0.0003442817175901156,0.0002611451816942107,0.00021517370263222132,9.655727159611386e-05
586,1456704196362551,0.00037545649011763195,0.0002024645544929156,0.0001330234313921909,0.00015051291542627398
587,1456704196385807,0.0005072364331110367,0.00018515253810330804,6.317006751878376e-05,0.00021609817975573855
588,1456704196399841,0.0007032091110418671,0.00020682775147519463,2.8747503520924033e-05,0.00027319075543478345
589,1456704196421915,0.0009125339172720899,0.0002548961343634267,4.8324518211866e-05,0.0003087423389621071
590,1456704196445787,0.0010822195808613568,0.00031040116709071585,0.00013059111641904573,0.00032129607986458423
591,1456704196466915,0.0011705607246302496,0.0003549750901534634,0.0002707903527747839,0.00032074930292559834
592,1456704196482423,0.0011576914475975937,0.0003780119888030977,0.0004498365430217363,0.0003226960887580389
593,1456704196504931,0.001049831384934105,0.00038028829245195496,0.0006370566957405122,0.0003396204899708295
594,1456704196526154,0.0008756945673943124,0.0003718468516630258,0.0007967382307806698,0.0003734794436114636
595,1456704196542953,0.0006761233851786673,0.0003654188144354846,0.0008970471949991244,0.0004139578830811359
596,1456704196564936,0.00049076362446394,0.00036927492983617036,0.0009183711230888604,0.00044358471362981704
597,1456704196586952,0.00034708522113794564,0.0003832122812358513,0.0008581306668966392,0.00044684114536656255
598,1456704196601953,0.00025570148975058985,0.00039911213548143995,0.0007307628007719017,0.0004180967549937576
599,1456704196624954,0.00021236343444300208,0.00040512062170553755,0.0005635784781763011,0.0003641076706272392
600,1456704196645958,0.00020405196447040368,0.0003911371427619299,0.00039021802237137413,0.0003001610288944497
601,1456704196661967,0.00021607582275293965,0.00035309746847666395,0.00024336575194999142,0.00024255984296576264
602,1456704196685354,0.00023796002290915957,0.00029438304903359164,0.0001480360193061612,0.00020181162652228138
603,1456704196706355,0.0002665370101563298,0.0002241894442571336,0.00011666127478352544,0.00017977860535573026
604,1456704196722357,0.00030514382262687375,0.00015406174702068052,0.00014713906737232334,0.00017124338142444684
605,1456704196745359,0.0003591217146914647,9.433941425600952e-05,0.00022442190211137175,0.00016793771402502967
606,1456704196766361,0.0004297663955154344,5.184548635543964e-05,0.00032520369454052057,0.00016249011515362714
607,1456704196782368,0.0005101406146384229,2.9246574702206374e-05,0.0004242762067222125,0.00015074532625710475
608,1456704196805376,0.0005854589436568393,2.5662266390607387e-05,0.0005006155627149266,0.0001322413814933922
609,1456704196826684,0.0006381632004111457,3.771653162353344e-05,0.0005414076200832905,0.0001093762248416306
610,1456704196842379,0.0006549895073218317,6.040262082641927e-05,0.000543066539979912,8.595136316031092e-05
611,1456704196865380,0.000632263869984704,8.764367394421616e-05,0.0005095601068823683,6.570476407161478e-05
612,1456704196886547,0.0005769491757632477,0.00011286301500125289,0.000449396429587342,5.126013296150003e-05
613,1456704196902246,0.0005034353396276953,0.00012993131392951182,0.00037284740531153747,4.3625236895384436e-05
614,1456704196924247,0.00042799911226392654,0.00013452479486463325,0.0002902986106817689,4.213844489916036e-05
615,1456704196948249,0.0003633991341402993,0.00012545379704311996,0.00021157677398020495,4.4763427169185215e-05
616,1456704196962255,0.00031550268876095707,0.00010525377444240971,0.00014548819973503183,4.87587852492438e-05
617,1456704196984723,0.0002828559697991019,7.95374989221961e-05,9.897956658715977e-05,5.171376602921827e-05
618,1456704197006753,0.0002590550657031121,5.5221082070332394e-05,7.600853876709877e-05,5.263168822231793e-05
619,1456704197022494,0.0002367380950665944,3.8321877980558035e-05,7.671936937657302e-05,5.243509926317691e-05
620,1456704197044494,0.00021138545499644747,3.218205559114409e-05,9.745618475445457e-05,5.340671941826461e-05
621,1456704197066833,0.00018338844901603083,3.670052116017835e-05,0.00013169296072857846,5.773829785184156e-05
622,1456704197082522,0.00015784561921447133,4.872764908747244e-05,0.00017155025375040938,6.602354542938817e-05
623,1456704197104531,0.00014245486822607678,6.340293907109268e-05,0.00020942878197856683,7.662750712327615e-05
624,1456704197128532,0.00014424835330160946,7.596103595358307e-05,0.0002393594059123016,8.6337202985016e-05
625,1456704197142533,0.00016611090300288703,8.340563144945691e-05,0.0002578159388887702,9.194593238635744e-05
626,1456704197164534,0.00020437887847502202,8.548067765069108e-05,0.0002638955821412253,9.188737205772459e-05
627,1456704197187855,0.00024893993860593147,8.45928360080848e-05,0.00025892870080716367,8.698601000464904e-05
628,1456704197201900,0.0002864268477093379,8.473388941112761e-05,0.0002457343885682882,7.989035237535917e-05
629,1456704197223851,0.0003053998332611333,8.986420081072038e-05,0.0002278577482751684,7.356791550204446e-05
630,1456704197247748,0.00030105515594548786,0.00010242636240712835,0.0002090912128912166,6.982704112152905e-05
631,1456704197261809,0.00027718678040003334,0.00012255863874235053,0.00019329025187452285,6.872889501982712e-05
632,1456704197293805,0.00024470713710239746,0.00014825162479994533,0.00018409892847230335,6.907072709707988e-05
633,1456704197308806,0.00021768381762139868,0.0001762590183136947,0.00018413444788148602,6.945200244669496e-05
634,1456704197321876,0.00020854280288994497,0.00020318624139757926,0.00019371027066667808,6.922916480276473e-05
635,1456704197343830,0.0002239221451095217,0.0002261355301288528,0.0002099368797572928,6.887923698038012e-05
636,1456704197368722,0.00026228281669511645,0.0002427347552260892,0.00022719339064994899,6.96518417879851e-05
637,1456704197382759,0.00031402728067642864,0.0002509256193927107,0.00023910766801369561,7.271618436309677e-05
638,1456704197403945,0.0003642620261156809,0.0002489814360704101,0.0002409992596107251,7.823825967169202e-05
639,1456704197427947,0.000397386112333004,0.00023587374376429017,0.0002313649867777254,8.488830434259738e-05
640,1456704197441950,0.00040184370082159627,0.00021174884784876872,0.0002117319846954901,9.009297908222007e-05
641,1456704197463951,0.0003731950163165461,0.00017815156903982105,0.00018530193283185166,9.093432697798121e-05
642,1456704197488485,0.0003143464834464645,0.0001377208913814856,0.00015537100743641486,8.522740970116015e-05
643,1456704197502487,0.00023312171817668507,9.336046974451595e-05,0.00012431050354542775,7.228892721432876e-05
644,1456704197524488,0.00013871258920955656,4.7280047927348405e-05,9.331959809516766e-05,5.318779886471609e-05
645,1456704197548489,3.905872571776476e-05,5.242746869602037e-07,6.270825054041873e-05,3.0507998417794164e-05
