,timestamp,x,y,z
0,1456704184615859,-0.002391344940950157,0.029079161755943928,-0.00019558795857051604
1,1456704184637877,0.10934876193295467,0.08078730425629144,0.14463567347569078
2,1456704184661848,0.2211926778852176,0.13235165508739902,0.278590445715693
3,1456704184676855,0.3350037634594325,0.18498061391667905,0.3893538060802166
4,1456704184697894,0.4541040770804167,0.24061514324082117,0.4651632879102588
5,1456704184722104,0.5798109970863984,0.30103525907561124,0.4978316831714473
6,1456704184736856,0.7072639304653608,0.3666491407682106,0.4867833940952598
7,1456704184758209,0.8239720639130996,0.4353732960780955,0.44188407915274225
8,1456704184797567,0.9130236486201767,0.5018232807434048,0.38270656267588454
9,1456704184798567,0.9592990794120011,0.5573797520011088,0.3333194188528374
10,1456704184819568,0.9546878280090839,0.5918613721208047,0.31404042875918764
11,1456704184841895,0.8999489181104333,0.5966441822744843,0.33368661730245447
12,1456704184859094,0.8043971233050209,0.5679518544201324,0.38631461667286204
13,1456704184879606,0.6853660773799182,0.508965842286746,0.45433997720825936
14,1456704184915606,0.5668018067866842,0.4300061225917561,0.5162332099384369
15,1456704184939608,0.4746470308285402,0.34649637280307266,0.5545532161756216
16,1456704184940608,0.4287801412714172,0.275022646208855,0.5607443627562928
17,1456704184960614,0.43503372785042455,0.22872655377944495,0.5357218506312292
18,1456704184976620,0.4821529444342666,0.21377891675159266,0.48734436312863727
19,1456704184999622,0.546065990765526,0.2281594118816633,0.426475555324198
20,1456704185020785,0.5997580991870199,0.2628302736356127,0.36316095736617887
21,1456704185036624,0.6243818403988304,0.3045193922261966,0.3041701115484061
22,1456704185059630,0.6170216328176645,0.3392122779104021,0.25266434357268197
23,1456704185080637,0.5921270288494743,0.3557780316612518,0.2097195812998927
24,1456704185096638,0.5763100622367224,0.3491773942440256,0.17628034113586757
25,1456704185119639,0.599005416354793,0.32229768510228013,0.15399009262992433
26,1456704185141640,0.6828583229614898,0.2854843089074654,0.1445471067442663
27,1456704185156646,0.8368225389972284,0.2537901351699132,0.1484742782367227
28,1456704185179653,1.0529775499038083,0.24291663941351133,0.16426586663811976
29,1456704185200660,1.3070125003292288,0.26478239182339575,0.18821582187166852
30,1456704185222661,1.56256020558158,0.3232410825709377,0.21488390080189734
31,1456704185239850,1.7794759076957274,0.41090408452200655,0.23824418455628327
32,1456704185260858,1.9245343038795089,0.5090189879594451,0.2534959629870068
33,1456704185282566,1.980656586745205,0.5921452494591204,0.2589858471228608
34,1456704185299365,1.9498836443718528,0.6368717024267155,0.25708593625022114
35,1456704185320615,1.8481424684503995,0.6306074828548626,0.25303315803645066
36,1456704185342563,1.6957479307839505,0.5758512758317642,0.25202717230340854
37,1456704185361119,1.5111099119567832,0.4883885662837645,0.2564184932470045
38,1456704185380777,1.3115475565876626,0.3914759220425249,0.2651103917348412
39,1456704185402789,1.1179974072268828,0.308848122569436,0.2757916425835091
40,1456704185419789,0.9580018665072122,0.25806624312223775,0.2883151038438698
41,1456704185440872,0.8649139039499792,0.24531057960269043,0.30637316780997614
42,1456704185463094,0.8737306088987428,0.2636970585205707,0.3358485294332157
43,1456704185487605,1.0121990726977743,0.2972414461899257,0.38084428137071646
44,1456704185500610,1.2857202846501006,0.3302031788946892,0.4400163649237537
45,1456704185522821,1.660637616977354,0.35797318294079955,0.5053879334827595
46,1456704185539607,2.0575937974764638,0.39360447722365777,0.5643474933780624
47,1456704185562059,2.366239324933769,0.46522913081266,0.6041918348505736
48,1456704185583155,2.4821766957181493,0.6036187788818493,0.6175667237973548
49,1456704185599824,2.3519930612373754,0.8242035632224637,0.6065610958632126
50,1456704185621826,2.0030264637508397,1.1115545281535861,0.583553868021137
51,1456704185642867,1.5399737562272346,1.4146857753153874,0.568312410416702
52,1456704185659864,1.1081315139887904,1.6581546886143919,0.582274234961946
53,1456704185688903,0.839826895118643,1.7675489886050235,0.6413301788887346
54,1456704185702883,0.8065137611152186,1.699954556114402,0.7483521591741767
55,1456704185719871,0.9948237289038421,1.4646618463096504,0.887722912908473
56,1456704185741866,1.3152460536038117,1.122624257469606,1.0258309859461872
57,1456704185770880,1.6398311601672617,0.7648459686561737,1.1208947313993138
58,1456704185779881,1.8532153866704975,0.48112348085289774,1.1405799785009545
59,1456704185801882,1.894828520282936,0.33330404645108763,1.079329746340233
60,1456704185822918,1.7748962556839478,0.34199634431048376,0.9650444835242747
61,1456704185839889,1.5612972130665217,0.4880601327051895,0.849827328495621
62,1456704185862136,1.3481825573273738,0.7243893198157398,0.7883092416450298
63,1456704185882507,1.2215944033376407,0.9913260995792108,0.8132680935915402
64,1456704185899536,1.233390639788879,1.2308255584601782,0.9194064321036584
65,1456704185921314,1.3890578076907032,1.398064834267005,1.0635507611817114
66,1456704185942511,1.6506769352187625,1.470846819783426,1.1837460688160797
67,1456704185959519,1.9528869059229639,1.4555202983062343,1.2305687764960171
68,1456704185981221,2.226451209310425,1.3858374012725725,1.1949039773646706
69,1456704186003222,2.4216001299858956,1.312069700493236,1.1150373831539815
70,1456704186019222,2.522962132471684,1.2828157455092055,1.0566724571263104
71,1456704186049224,2.5501782446984937,1.327337652807952,1.0763295158339767
72,1456704186062732,2.5426989600435523,1.4465593084640755,1.1889837708033322
73,1456704186079248,2.5331672071063567,1.6155967016324082,1.3577962252174116
74,1456704186101249,2.5204518157241944,1.7946725849991139,1.5108223561664025
75,1456704186122255,2.4577039350914975,1.9424213597415303,1.5752371577468474
76,1456704186139251,2.2674296211954506,2.0261827153240155,1.5116200368446246
77,1456704186161757,1.8831900704582467,2.026793253468916,1.3327316093028732
78,1456704186182263,1.3028579125325004,1.939174292646861,1.1004573024105282
79,1456704186199265,0.6297482665595114,1.7722650060506213,0.9044053172388554
80,1456704186221266,0.07827044973619132,1.5505123050752108,0.830906153098595
81,1456704186242268,-0.07067803370187793,1.3151954051430466,0.932359557132488
82,1456704186259776,0.4370601781442773,1.1212225511100882,1.2069763355770233
83,1456704186281292,1.711220509619887,1.0265147346853307,1.5977808180970732
84,1456704186302293,3.621384297925175,1.0753827782868608,2.014162700311324
85,1456704186326295,5.779369758404936,1.2810483555288703,2.3687397417073535
86,1456704186341296,7.638903686598073,1.6142940443741363,2.612199482191324
87,1456704186362818,8.701658045781816,2.005518599474498,2.747787471867187
88,1456704186379338,8.751577873457212,2.3647505520889665,2.8195289893767637
89,1456704186401340,7.997557410306025,2.6159294449749537,2.886872108292991
90,1456704186422346,7.03072536499178,2.730753287728161,3.007013488747704
91,1456704186439341,6.594473801757585,2.743099240129118,3.2347907851826325
92,1456704186462094,7.265104433588994,2.7339464176692108,3.6282455240276565
93,1456704186482752,9.186177351177985,2.793317085135516,4.238275181267537
94,1456704186505761,11.974554319853763,2.977836298265292,5.076089658905853
95,1456704186521555,14.842805805291595,3.283551430757309,6.0797043187401
96,1456704186544557,16.88900763211438,3.6458149521700256,7.11137213894481
97,1456704186566234,17.427578684555566,3.9660577589192623,7.996328439993118
98,1456704186581866,16.220793167857547,4.152814655528082,8.578109636744902
99,1456704186604865,13.530952837240019,4.15675172435022,8.753680003039216
100,1456704186626206,9.99915533995035,3.9830486128042177,8.476946367621313
101,1456704186641868,6.416849537595806,3.678399093495587,7.752992666907463
102,1456704186664678,3.4806904067726734,3.304083557975799,6.64620379402612
103,1456704186686228,1.6136518140782357,2.9115795692832243,5.292994470372242
104,1456704186701231,0.8990260720316268,2.531627801431675,3.887984900375074
105,1456704186724233,1.1262984916695495,2.1775484750027965,2.631483972182475
106,1456704186746011,1.9113574382063887,1.8563161733558182,1.664088434864419
107,1456704186762021,2.837793798980515,1.5786114665190716,1.0287364145038438
108,1456704186784317,3.5717194164003425,1.3604459019010986,0.6800580266994125
109,1456704186805547,3.9242599270709038,1.2146526305500422,0.5288248824497775
110,1456704186821319,3.8606006724300985,1.1390925473102949,0.4917905767334433
111,1456704186844321,3.469998062654319,1.1123067516421883,0.5214237010763443
112,1456704186865842,2.915097907288901,1.1015808630574933,0.6071507067117876
113,1456704186881349,2.375223259090659,1.0783256680580966,0.7561881890760836
114,1456704186904350,1.9929492495960444,1.0306732814952806,0.9691257803003817
115,1456704186925562,1.8328043628334867,0.9661300082196218,1.223286027806152
116,1456704186941353,1.86486189440252,0.9038126502704328,1.4707047268357059
117,1456704186964576,1.9836894499069944,0.8615191198018936,1.6511680057252434
118,1456704186986062,2.0580946431849227,0.8452522103158104,1.7148600723620608
119,1456704187002065,1.9890545481618902,0.8466324124341311,1.644201200641849
120,1456704187024804,1.7483344008515846,0.8481559028741239,1.4630428460918858
121,1456704187045805,1.3832118493509884,0.8318531528792569,1.2267686279223438
122,1456704187061830,0.9922606844004656,0.7866654641116294,0.9976697522701774
123,1456704187084839,0.688657160862149,0.7122098871214484,0.8189970316735116
124,1456704187106181,0.5664698193481725,0.6185106047799835,0.7014002160928157
125,1456704187121842,0.6777646373926592,0.5221819510825224,0.627041076509778
126,1456704187144878,1.0211725829509948,0.44044716707925746,0.5660937798079296
127,1456704187165656,1.5396501370520757,0.3852426634065075,0.4948673145970082
128,1456704187182200,2.127411576632141,0.3595460322419133,0.4068465216658431
129,1456704187204214,2.6496922344496676,0.35697574706651075,0.3141796500783593
130,1456704187226214,2.9773524436330194,0.3647232580767916,0.24205511381785294
131,1456704187241175,3.0298385517001596,0.36928884012085333,0.21941027688228762
132,1456704187264700,2.8116584818242076,0.36356457541290305,0.26826732635889
133,1456704187285680,2.4267752008885144,0.35252841064502116,0.3936982675631921
134,1456704187303421,2.0621814137376937,0.3542315011684162,0.5775555539612799
135,1456704187324422,1.940829411069528,0.3938965367517599,0.7797269794822329
136,1456704187345445,2.2514114415210895,0.49213386201166065,0.9489282094470246
137,1456704187361934,3.070173538281529,0.6524452847834802,1.0409284919903314
138,1456704187384440,4.300534015632711,0.8554285997655453,1.0375068740757147
139,1456704187413442,5.663978922579874,1.0645882926554715,0.9572609751007785
140,1456704187421442,6.766906705952226,1.241819878638341,0.8517392560353346
141,1456704187444444,7.236014970472113,1.3640894759567934,0.7867219930842139
142,1456704187466966,6.872686502334593,1.4319752835912989,0.8157525679969541
143,1456704187480980,5.753025217481584,1.4663275376588507,0.9574864460529218
144,1456704187505114,4.217906258473374,1.496455695323639,1.1877117515788533
145,1456704187527112,2.7526916983049934,1.5467985268996693,1.4509767853111821
146,1456704187541209,1.8139105285199526,1.6280155072685658,1.6878522645276544
147,1456704187565100,1.6810855630926687,1.734947722684566,1.8656987719516327
148,1456704187586217,2.388004624224873,1.8504782251057197,1.997616466514159
149,1456704187601218,3.7431220931134246,1.9527678067457708,2.138733828175405
150,1456704187624219,5.412018337191365,2.0234163146992974,2.3595973392058944
151,1456704187646232,7.020866636701458,2.054078519865229,2.7073101518232434
152,1456704187663939,8.24737260439105,2.0489544653211276,3.1712603412472946
153,1456704187685157,8.881074386615209,2.0221513652008163,3.6709796899824467
154,1456704187707158,8.846802957025119,1.991630837367658,4.0771617921668435
155,1456704187728159,8.1945577314895,1.972401021888821,4.259960590746381
156,1456704187745160,7.067487675193498,1.970402066073895,4.1395805005393695
157,1456704187766673,5.661041622722167,1.977996166505767,3.712426288969558
158,1456704187788179,4.181471450959759,1.9732233782059405,3.046049483474962
159,1456704187805180,2.8099020633296385,1.9255268886082522,2.255812620206458
160,1456704187827183,1.679004437470208,1.8081016151751164,1.4769786913019693
161,1456704187847185,0.8653581979127483,1.6121881460042669,0.8363609033487795
162,1456704187864910,0.3932016025122458,1.3552380561617625,0.4249097711912195
163,1456704187886418,0.24235693615948295,1.0769921272188319,0.27728341552317143
164,1456704187907427,0.3566216490101082,0.8249444772396582,0.36600580514755066
165,1456704187924421,0.653829379134723,0.6373841553580593,0.6126198677418216
166,1456704187946424,1.0401059990124966,0.532509527583616,0.9116957490226764
167,1456704187967877,1.4277298932727445,0.5068225586295063,1.1603740389018482
168,1456704187984661,1.7514694697169864,0.5405044730967432,1.2856431394729504
169,1456704188006892,1.9769404952339202,0.6055946320158547,1.2617763930508648
170,1456704188027900,2.0988154972473856,0.6739996964729096,1.1123342311065096
171,1456704188044664,2.1327915991697366,0.7238509823651312,0.896515658169264
172,1456704188067112,2.1062812771267523,0.7431585620155621,0.6859741669000475
173,1456704188087833,2.048840962440446,0.7299749483188371,0.5410041089834624
174,1456704188104818,1.9816144770258939,0.6893763247999164,0.4934765364099096
175,1456704188126853,1.9086138709947857,0.6290497030683354,0.5407709196579888
176,1456704188147612,1.8159315557839262,0.5558892416339416,0.6517331065834417
177,1456704188171861,1.6820840710456146,0.4752673600171737,0.7819152252792994
178,1456704188186848,1.4948532369070517,0.39308754163434595,0.8915651236207932
179,1456704188208116,1.264110822948636,0.31891082612893784,0.9584657636836649
180,1456704188224850,1.0217165038877256,0.2671375735665686,0.9804509904375284
181,1456704188246852,0.8076482397518446,0.2538274977213546,0.9679168140721928
182,1456704188268093,0.6503504084642592,0.2896377992992903,0.9317020884595865
183,1456704188285105,0.5533359151903372,0.3725958380635463,0.8738609865161597
184,1456704188307105,0.49674234075968576,0.485612256661773,0.7872269925527947
185,1456704188328103,0.4536365839421089,0.6020756131671472,0.6646608420125498
186,1456704188345105,0.41195178082620126,0.6989413508782444,0.5127134427405678
187,1456704188367104,0.3893099383706894,0.7714094802805056,0.3611374443819522
188,1456704188390118,0.4313773579560783,0.8395132555115531,0.2617873868842149
189,1456704188411119,0.5928163351726602,0.9390882978330432,0.27599986572771196
190,1456704188427120,0.9087834414608199,1.0988647625810262,0.4544388722760563
191,1456704188449122,1.3695958173347986,1.3163856006789652,0.8158707676484083
192,1456704188464643,1.9100919556266658,1.5493290834344242,1.3319913572901974
193,1456704188486161,2.4203044367259468,1.7309930730357486,1.9244756455813172
194,1456704188509162,2.7771768030008395,1.8031264084243626,2.4776576685896115
195,1456704188524183,2.8885545106012014,1.7466568026272467,2.866259200953062
196,1456704188546165,2.733190358110007,1.5914970396244892,2.9928665096872256
197,1456704188569721,2.3796111652042105,1.4011849149519993,2.8245507790986313
198,1456704188586204,1.9746501724417727,1.244830869849249,2.414384334974932
199,1456704188606206,1.704626800637735,1.1738765768554584,1.8961724692709114
200,1456704188629207,1.7416825663280655,1.2125699228218048,1.4508320562632533
201,1456704188646208,2.1909940927349707,1.359332725359212,1.254359369656518
202,1456704188666728,3.0522895987693857,1.59156432971094,1.422568256299209
203,1456704188689249,4.205523475286347,1.8695411263202033,1.967312318693164
204,1456704188706285,5.428603986681266,2.140407897986235,2.778859538175631
205,1456704188726251,6.450219993018269,2.346306993937763,3.6482699323933745
206,1456704188749253,7.027118184317545,2.4390800318146533,4.332263384031164
207,1456704188766810,7.019297848323357,2.397289870855391,4.639149016146637
208,1456704188785299,6.433123176548936,2.234646793065379,4.495137088337671
209,1456704188808300,5.414782375796342,1.9911826712497234,3.9577896071489334
210,1456704188830298,4.1968595376312745,1.7112925055056696,3.1762305114206
211,1456704188845297,3.0208248711022296,1.4245437595417938,2.3277609197051463
212,1456704188868835,2.0685192575419493,1.1428373400970846,1.5637748381448968
213,1456704188890340,1.4276963225917252,0.8726046765439011,0.9800820421720119
214,1456704188905345,1.0954788795626458,0.6283460579875152,0.6099586675541198
215,1456704188928343,1.0059573240672228,0.4351240368896993,0.433156797012915
216,1456704188950348,1.0646091037205008,0.3187082736925439,0.3951018511242602
217,1456704188965863,1.1782658082905118,0.29136896086112923,0.43028726088115005
218,1456704188988421,1.2753667271211517,0.3427804672695973,0.48253425188582233
219,1456704189010391,1.3146378151431535,0.44127731559182665,0.5160164673138411
220,1456704189025392,1.2836289414651543,0.5450123200216557,0.5157952325235301
221,1456704189048424,1.191266496245159,0.6177415980176668,0.4819949406054116
222,1456704189070909,1.0586092428026765,0.6416063177244943,0.4234720498232294
223,1456704189085425,0.9103331939810368,0.6209304199633265,0.3539969671993167
224,1456704189108450,0.768265317846037,0.5760345516840569,0.29002236548483207
225,1456704189130423,0.6477728995688933,0.5310041102995527,0.24781329527536294
226,1456704189145424,0.5573239193452088,0.5015066334526321,0.23925491499526716
227,1456704189168944,0.5007067800160515,0.4881276867528019,0.267644302577233
228,1456704189190667,0.48036266440850633,0.4781589054457861,0.3255543540219063
229,1456704189205659,0.49981161150701037,0.45475213802621284,0.3963913179614273
230,1456704189228687,0.5638314396929259,0.4082055322329541,0.4598064549595548
231,1456704189251475,0.6762292945917702,0.34266464351129694,0.49897252751909266
232,1456704189265911,0.8355615884734203,0.27443685941730506,0.5061428124023399
233,1456704189288669,1.0291835596984913,0.22355340188222042,0.48343785552079915
234,1456704189311773,1.2272888470679952,0.2040648413280322,0.43860058655508866
235,1456704189326774,1.3816206768156327,0.2185312072227498,0.3788587068385429
236,1456704189348436,1.435008241784105,0.25926488495447875,0.3076313580677601
237,1456704189380730,1.343647916823369,0.3152574070609807,0.22707443422576862
238,1456704189386017,1.1052719421327166,0.3807951936131321,0.14525119615079296
239,1456704189409067,0.7798559463129939,0.460533509465318,0.08313428420126623
240,1456704189431738,0.49031487501618326,0.5672307997006729,0.07625635177726875
241,1456704189445734,0.3969158371085637,0.7123300260581743,0.16839750504121137
242,1456704189468749,0.6469006780071047,0.894068062431904,0.39825204025866545
243,1456704189490967,1.3100303853153632,1.0901312646713297,0.7831327580813522
244,1456704189507064,2.3225393683189193,1.2605121067848557,1.3058181180544197
245,1456704189528968,3.470983818450745,1.3613032071075415,1.9106636864271311
246,1456704189551971,4.44209486002019,1.363903041177473,2.5120632715594318
247,1456704189568165,4.937669198426641,1.2704139559868686,3.013113726937245
248,1456704189589062,4.81324064253019,1.1176907541543537,3.3283503007753734
249,1456704189611028,4.171435428032354,0.9684090893451907,3.404839723975435
250,1456704189628067,3.3520528102382214,0.893541633019928,3.2394731576124465
251,1456704189649063,2.8118350205887146,0.9531913604787718,2.891170299135253
252,1456704189671761,2.94491460130312,1.181150758014569,2.481226852460431
253,1456704189687241,3.92263188025287,1.5752195191711906,2.1697855112689592
254,1456704189708467,5.619488491983792,2.0937121136115198,2.104214481790062
255,1456704189730246,7.654572869381419,2.6594763953528737,2.3568974533763534
256,1456704189747247,9.529254312562749,3.1734366594838104,2.8864862842335977
257,1456704189768539,10.798608965997037,3.5378882244399756,3.5483798628720837
258,1456704189791843,11.202240429821952,3.684909701425913,4.150013425984415
259,1456704189807551,10.711119723376346,3.5984663259638907,4.518977629800081
260,1456704189828849,9.49458051322629,3.3167337899192235,4.550545671654245
261,1456704189851559,7.840787726782985,2.911609312253397,4.224003358306083
262,1456704189866848,6.066942706204826,2.459217249907088,3.5976530356116747
263,1456704189889110,4.444332343689258,2.0204211279102897,2.792032482327079
264,1456704189912102,3.1509279153088023,1.637812802770038,1.9612634597815872
265,1456704189927858,2.2564919383105098,1.3404753963796185,1.2529913343041634
266,1456704189948859,1.7382238695901342,1.1454376564673479,0.7674961616014163
267,1456704189971887,1.515282844002362,1.0530630595174375,0.5322094445280362
268,1456704189993894,1.4849194582454375,1.0416598755890678,0.5024843814847934
269,1456704190009012,1.5478589750955363,1.0687585050287798,0.5875897132909211
270,1456704190030896,1.6213282301680416,1.0828746775042006,0.689771457602655
271,1456704190053900,1.6457307494555493,1.0423847906479804,0.7391680401768185
272,1456704190076635,1.5904535554831745,0.9322260376275698,0.7109820552506322
273,1456704190091634,1.4573342839824897,0.769411661673751,0.6215995117446638
274,1456704190113550,1.275433695439709,0.5946527547873882,0.5104826466823724
275,1456704190128549,1.0852940188583422,0.45473319749185626,0.4184582045390233
276,1456704190151345,0.9206011575772791,0.38399977089282317,0.37066698329637315
277,1456704190173563,0.7984566431055038,0.3923297983211731,0.368546591466312
278,1456704190188078,0.722295326101098,0.46315166701427307,0.39234055511091226
279,1456704190211113,0.6917632159030151,0.5610693658186617,0.4126561624166471
280,1456704190233073,0.7103018839761079,0.6457364490556491,0.40582453180082456
281,1456704190248074,0.7845410793899822,0.6867416829005142,0.365445771116283
282,1456704190271586,0.9158711845454119,0.6734118601131228,0.3041918436453959
283,1456704190293091,1.0900750636179857,0.6151053626428851,0.2453193911566215
284,1456704190308092,1.2726908030530977,0.5326424047242259,0.2089679645221892
285,1456704190331093,1.4146484389048881,0.4470471384113065,0.20075795609511476
286,1456704190355094,1.4674466919734053,0.37301847707847047,0.20859468740776876
287,1456704190368985,1.4038893403742387,0.3203216607327834,0.20940844383092821
288,1456704190392080,1.2393070855542563,0.3000322295531754,0.18292651170313007
289,1456704190412998,1.0457375443405688,0.3287376900502498,0.1262651954745991
290,1456704190428998,0.9477054398993051,0.4248949411097868,0.06242706178810631
291,1456704190451006,1.0895869068763895,0.5970605945578076,0.03796091458771614
292,1456704190474034,1.5767023929040407,0.830332964477359,0.1090614458099833
293,1456704190490007,2.4111644134475587,1.0806284272057594,0.31986969824259315
294,1456704190512009,3.4563694650902765,1.2837670026379975,0.6806865251034235
295,1456704190534071,4.458796753795087,1.3787800578689933,1.1557680881579655
296,1456704190550012,5.13032635822446,1.3360953801417654,1.668117394284327
297,1456704190571809,5.260540905696569,1.1760159576136253,2.121528438662444
298,1456704190593817,4.8077884672242215,0.9655352664409628,2.4313493188543362
299,1456704190610818,3.9263725081854597,0.7926899090953794,2.5510421427989436
300,1456704190631819,2.9204684276149955,0.7309839678391483,2.485464944221951
301,1456704190654071,2.148929231200104,0.8122372015327947,2.2907450408890395
302,1456704190670616,1.9182757866195614,1.0204720339161109,2.0657636616587625
303,1456704190691725,2.395751940888778,1.3069970277515293,1.9364057145210796
304,1456704190713411,3.5640142588640575,1.6159336184250828,2.027627651348335
305,1456704190730413,5.228153150193824,1.9057773745093625,2.422183337024333
306,1456704190758421,7.070708246798417,2.157524262059309,3.119311876438232
307,1456704190774014,8.734088698687572,2.369965671041692,4.017358592847856
308,1456704190790939,9.903051657732368,2.5501574038809176,4.936652946112314
309,1456704190811940,10.367892348775984,2.705481101911699,5.674868384014739
310,1456704190841718,10.061800031649472,2.8367373064358175,6.066417159001122
311,1456704190850713,9.06944565244143,2.930251875723879,6.020199327402262
312,1456704190871766,7.600970016159957,2.954044534015827,5.531577216414442
313,1456704190893711,5.931179924867448,2.867464544315694,4.678573209464681
314,1456704190910452,4.32114419281966,2.644893147862634,3.6068271055889314
315,1456704190931675,2.9536408676935775,2.2988925315914277,2.4995166611947828
316,1456704190953784,1.908533658611924,1.8842362795825414,1.5335707123949491
317,1456704190970783,1.1797539511201716,1.4778058534285483,0.8352089024018523
318,1456704190991774,0.7126937126379755,1.1468133618408969,0.4514400867466403
319,1456704191022017,0.4382459770017634,0.9235577892715627,0.34732082928326924
320,1456704191030785,0.29337775614397654,0.7982579843642225,0.4283511861881537
321,1456704191052021,0.23054927685797547,0.730938404607673,0.5784300259576219
322,1456704191073705,0.22093601259093168,0.6744785885753598,0.6986359268497483
323,1456704191090206,0.2533904269069505,0.5964409746055142,0.7330078039547642
324,1456704191112207,0.32878738124663465,0.48957830251295265,0.6745151874382781
325,1456704191134209,0.45016678038707103,0.368723560444448,0.5533989845747014
326,1456704191149211,0.6118678167500495,0.25918561305999765,0.4161664722420497
327,1456704191172046,0.7930471678743084,0.18409293126181098,0.3049350111852815
328,1456704191193847,0.960045648772776,0.15581357656073913,0.24426267533035473
329,1456704191216852,1.0776161499070709,0.17299906658162478,0.23783147789237247
330,1456704191231567,1.1238353155021015,0.2225281813047076,0.27295114858728636
331,1456704191253852,1.1014449294769002,0.28505662153754807,0.32895170281720826
332,1456704191276398,1.0402148535194995,0.34267185533089456,0.38587466975244816
333,1456704191291411,0.9880809227675643,0.386042626175883,0.4307144260952509
334,1456704191313408,0.9920919069845044,0.41730128810540923,0.45926685649163884
335,1456704191336409,1.0750091560679322,0.44617127100149395,0.473267774581367
336,1456704191351409,1.2183863217841677,0.4811128526384355,0.474875776079186
337,1456704191373928,1.362954409319942,0.5213517991310699,0.4620532370705328
338,1456704191389762,1.4299137727515088,0.5557749399620001,0.4278877697786367
339,1456704191412764,1.3565474654350709,0.5702707558800887,0.3648940645681344
340,1456704191434074,1.1327694199203553,0.5591517023570292,0.2729164760512795
341,1456704191449767,0.8247419520351307,0.533090159195987,0.16712628417590228
342,1456704191472566,0.5757455077280451,0.5180243887676155,0.08155620200097036
343,1456704191501877,0.5793467326851245,0.5450790160715839,0.06458979381344468
344,1456704191516876,1.0245899152481286,0.6363187158803761,0.16597496852628071
345,1456704191532576,2.0205530173885577,0.7925201184427323,0.4190325116242337
346,1456704191553804,3.52059551880035,0.9880111712935208,0.8248713071204539
347,1456704191576969,5.280718436269352,1.1754908381278615,1.3459373988360912
348,1456704191592999,6.88966284276242,1.300400600165116,1.9131616963034028
349,1456704191613996,7.886983260788664,1.3200352731730007,2.4448888464068745
350,1456704191636997,7.938711931568444,1.2198828725536446,2.8696368077610797
351,1456704191652996,6.994532970396121,1.0211974291818953,3.142880925583154
352,1456704191673722,5.344890536748649,0.778212709200114,3.252773929287073
353,1456704191696212,3.5429855442254814,0.5670811260945446,3.2179164463498
354,1456704191712227,2.2225530124587842,0.46944076305639143,3.083972198478243
355,1456704191733499,1.8851380700096,0.5523157540983021,2.9199109813424227
356,1456704191757215,2.7359805365516436,0.8461922604760239,2.805959162470359
357,1456704191773090,4.624936489599349,1.3270293321322437,2.807783356169414
358,1456704191794067,7.108621635972453,1.9124433153606135,2.946329016164126
359,1456704191817041,9.60236638822337,2.480410416892579,3.183562522648546
360,1456704191832075,11.55682251244024,2.9080731563778826,3.436835934160491
361,1456704191853049,12.596354290576603,3.1144621749010333,3.613998903837119
362,1456704191876851,12.588367249222424,3.0849837704635052,3.646683142129349
363,1456704191893059,11.642228882110517,2.865199947471504,3.504362949674931
364,1456704191913062,10.048409449405574,2.5317065300286172,3.1909026292022147
365,1456704191937127,8.176925547762437,2.1614295092084626,2.73704193217784
366,1456704191952063,6.366845037846273,1.8152317400799782,2.1958397528541966
367,1456704191973854,4.844185053173798,1.5348772018209904,1.636475194930304
368,1456704191996370,3.694054454742847,1.342613995001941,1.1309637387838538
369,1456704192012370,2.8870940625781065,1.2378552826845783,0.7363085543363583
370,1456704192033668,2.3349154300907973,1.1956776678408527,0.480108470622605
371,1456704192056378,1.9423271120150267,1.174033924267064,0.3563924199544442
372,1456704192072987,1.637977297280007,1.129890817796495,0.3331918266571526
373,1456704192093878,1.3831297844417043,1.0370284636514515,0.3675655308215266
374,1456704192116880,1.1665451878608322,0.8958855273613745,0.4204517768316758
375,1456704192132887,0.9932183139125095,0.7298390304356883,0.46503426460993474
376,1456704192153886,0.8727072511634129,0.5705357393855802,0.4874145961160845
377,1456704192176899,0.8104644898369043,0.4416203887903967,0.48316997425532
378,1456704192192979,0.802872192855434,0.35004302480229904,0.4541210488332199
379,1456704192213980,0.8360544962229158,0.28786889491103446,0.4067414248737921
380,1456704192236984,0.8898977272818428,0.24090077784565503,0.35086267062387144
381,1456704192258882,0.9475731450699189,0.19793684067900807,0.29737655582072015
382,1456704192273399,1.006039703460719,0.15625472275728716,0.25553804983195033
383,1456704192296618,1.0798064111173262,0.12214287122249054,0.23141141021475217
384,1456704192312620,1.1929853947055988,0.10743399841007747,0.22784659794721787
385,1456704192333956,1.3615540538268167,0.12369748695194088,0.2447245437237576
386,1456704192356629,1.5743901639519893,0.17603843802300367,0.278124383153144
387,1456704192372644,1.7847270205266723,0.25875461433839686,0.3186034869797019
388,1456704192394973,1.920692041250029,0.3549886221937932,0.35040273320525533
389,1456704192416971,1.9142149778858069,0.44155531441503354,0.353917297353852
390,1456704192433102,1.7366071397391896,0.4981543148151563,0.3128193784351517
391,1456704192455047,1.424484969749229,0.5175654747974665,0.2246905168473968
392,1456704192476767,1.0849335677852603,0.5117418841009765,0.110787392425864
393,1456704192492775,0.8780271656093042,0.509841959995579,0.01884153089885482
394,1456704192515776,0.9792553494404619,0.5479868249776733,0.014411601229378963
395,1456704192537041,1.524201031488773,0.6543246031983707,0.16086601779600765
396,1456704192552778,2.542461379597609,0.834770558398958,0.4934317036147468
397,1456704192575304,3.9021765414230942,1.0648565936213745,0.9968459345068481
398,1456704192595810,5.300865387256528,1.2921588028091715,1.5974886941994253
399,1456704192611966,6.3343945858973285,1.4510201863942518,2.177624689691179
400,1456704192635813,6.642835077989724,1.4862855644395998,2.610507543066297
401,1456704192657032,6.080410220759892,1.3775327646320403,2.8038588310958277
402,1456704192673071,4.821956285020784,1.1532745908776307,2.73330069312597
403,1456704192695335,3.3362316913627423,0.8878847959692769,2.452225991438348
404,1456704192716664,2.224690361234249,0.6813037241974068,2.076927808758084
405,1456704192738628,1.9962356897373719,0.6287804638036136,1.7551177853348021
406,1456704192755339,2.876554420121644,0.7911572400499781,1.626098494054306
407,1456704192775850,4.727558156827129,1.1748099661148996,1.7782440151919228
408,1456704192798947,7.101918261599429,1.7265027757240397,2.213831364783295
409,1456704192815964,9.403124241789047,2.344850811543295,2.8389537930460733
410,1456704192836964,11.080997526410304,2.907376210156014,3.492097269684975
411,1456704192858959,11.785981469538987,3.3073507323346285,4.0034451926580035
412,1456704192875861,11.436765599341124,3.486687545606227,4.254317574348146
413,1456704192896309,10.199165218560738,3.4479787898549454,4.20582753750753
414,1456704192918525,8.402507690932755,3.239657179038389,3.89050847786108
415,1456704192935313,6.42979598377653,2.926914225715481,3.385348265870058
416,1456704192956626,4.61605930128405,2.568424981967648,2.786200471749403
417,1456704192980337,3.1796920039627783,2.2078229547398105,2.188447694987962
418,1456704192995336,2.19947214843097,1.8739034069086806,1.6697396250283745
419,1456704193016555,1.6364201479768747,1.5810451554256237,1.2749313648119793
420,1456704193038551,1.3835575180803588,1.329042511652007,1.0094964614451118
421,1456704193055339,1.316912661557036,1.106372440302952,0.846036615036002
422,1456704193076945,1.3282392048617533,0.8982181045400119,0.7414125806096536
423,1456704193098487,1.337606598607687,0.6958718520470963,0.6562848723032724
424,1456704193115354,1.2956553227998184,0.5024817034838943,0.5681647368854097
425,1456704193136584,1.1836724130517862,0.33196299322055206,0.4733782960301805
426,1456704193158643,1.0117197244690217,0.2018088979787583,0.3798620065795957
427,1456704193174945,0.8112483649976427,0.1241244112260551,0.29726636116090516
428,1456704193196388,0.6220363618857838,0.09989336583945672,0.23076079070926347
429,1456704193218603,0.4785137059265628,0.11892768506470931,0.18099288958850965
430,1456704193234391,0.4012841589254967,0.1645038711077906,0.14806015503881237
431,1456704193256399,0.39555871929355996,0.2197505443173349,0.13514775120126887
432,1456704193279261,0.45388240519698286,0.2728049621574389,0.14861189421292617
433,1456704193294256,0.5595992196685685,0.31873662716757334,0.19423842239931396
434,1456704193318257,0.6892936502589269,0.35773322958915343,0.2718391132607782
435,1456704193338545,0.814342580031696,0.3909408071961055,0.3711077669148638
436,1456704193354260,0.9029288471875325,0.41677621760235073,0.4710430971214398
437,1456704193377788,0.925015025641226,0.4301809197544062,0.5440020915997119
438,1456704193398514,0.8627891093709301,0.4252845609510439,0.564028097726689
439,1456704193414298,0.7258782312900789,0.40005006814038613,0.5175220718162936
440,1456704193445305,0.564979403181665,0.3608258663569088,0.4126881378470066
441,1456704193458300,0.4738719621996424,0.3246974263033743,0.28332821780164025
442,1456704193474936,0.571838849523644,0.31745687825467,0.18363710397339544
443,1456704193497571,0.9658656931690968,0.3658179819243165,0.1737780868802841
444,1456704193518804,1.7011649607753616,0.48521253602602493,0.2999057460751117
445,1456704193541800,2.716725245057389,0.6680863811302113,0.5753103854749446
446,1456704193557804,3.827983458554604,0.8795588154272426,0.9703056967469854
447,1456704193578807,4.757666094375392,1.0655810633146678,1.4163973374454282
448,1456704193593812,5.221648668505402,1.1729368127727993,1.824880448280491
449,1456704193617938,5.0474368444661115,1.172952456998268,2.113426817458699
450,1456704193638930,4.273014174109983,1.0768166107535606,2.2306596588182632
451,1456704193654931,3.1696006416529454,0.9340973396624183,2.1707817495769963
452,1456704193677324,2.1653045388055667,0.8156237973571745,1.9760785890159267
453,1456704193698904,1.6976558120206309,0.7902422759660442,1.729605709074138
454,1456704193713833,2.057038718317462,0.905881198713683,1.5398165089073947
455,1456704193737002,3.283165246217198,1.1793158842098013,1.515184966549818
456,1456704193759002,5.151151888994269,1.5926403621453897,1.7280304273748017
457,1456704193774346,7.248104134030056,2.0938432193061827,2.1774350335040986
458,1456704193796855,9.106617224977407,2.6030760783075664,2.77263331023469
459,1456704193820002,10.341050882859648,3.0283718740930006,3.3550555366587065
460,1456704193834965,10.739210997755814,3.289905347739725,3.7551537646314657
461,1456704193856858,10.290677980073278,3.3434213454882675,3.855061940048401
462,1456704193878869,9.158774862517134,3.1903083830323804,3.6238297135489983
463,1456704193893994,7.6141542175982275,2.8698389170606053,3.113944396998372
464,1456704193917054,5.953040461078952,2.4419510047154054,2.4333942270164877
465,1456704193938996,4.425147312477569,1.973039888222832,1.7127679973943741
466,1456704193961962,3.1894803988294296,1.5286120648580976,1.0755718544934572
467,1456704193977392,2.303870261430123,1.1667494600979995,0.6120377420529977
468,1456704193998609,1.743073315265967,0.9270457167681254,0.35944753297405313
469,1456704194021685,1.432332950465691,0.81845702391297,0.29625464349864095
470,1456704194037400,1.280937579677458,0.8147399729030846,0.3546738917737296
471,1456704194058408,1.2058148826024586,0.8627264704497545,0.44833706587995314
472,1456704194081919,1.1439766920097287,0.9012346823816084,0.5041420679920465
473,1456704194096921,1.0577477463450746,0.88280190579513,0.48517252504692215
474,1456704194117921,0.9361412090434947,0.7891692882974745,0.3961301448731439
475,1456704194141922,0.7923262280933965,0.6347036368563721,0.27177124533844504
476,1456704194157923,0.6553268796122154,0.4576609985069024,0.15656956174766234
477,1456704194178932,0.5564049605486114,0.30398657262730333,0.08566671399743954
478,1456704194201994,0.515039899970607,0.21027472345475823,0.07374663417318245
479,1456704194216988,0.5314507735832517,0.19181046635189952,0.11356825114401843
480,1456704194238986,0.5897659590542137,0.23919555901437653,0.18227496045304542
481,1456704194260951,0.6699621058418141,0.3239399154680738,0.2518748652888639
482,1456704194277457,0.7614528698378361,0.4105137497827985,0.2999669499986017
483,1456704194299967,0.8699781460977432,0.4701743158252118,0.3172876941431707
484,1456704194321983,1.0132547812664805,0.49094430641971626,0.30975330538763385
485,1456704194336972,1.2075416568400439,0.4795174634987057,0.2943798252179166
486,1456704194367516,1.4522716480633526,0.45479793146997344,0.29057772784136315
487,1456704194380991,1.7201120655420135,0.4371141049875229,0.31031620788204517
488,1456704194396992,1.9567613606263718,0.43895897141982176,0.3516386221823235
489,1456704194419992,2.0919375443338706,0.4615200870317472,0.3989435991165566
490,1456704194441993,2.060975512857579,0.497756050341141,0.4302506832665384
491,1456704194456995,1.8333954833180537,0.5393733705287728,0.4280335989381331
492,1456704194480006,1.4404424909206923,0.583368888065299,0.3884924412936529
493,1456704194501300,0.9904490716079126,0.6346981112917163,0.3253192669601305
494,1456704194517014,0.6618044067523638,0.7042416162735097,0.2668885254805448
495,1456704194540017,0.6685617887193916,0.8032979282283974,0.2483194360333683
496,1456704194562017,1.2010017913643924,0.9363496419000599,0.3010009419579511
497,1456704194577528,2.3516713310044786,1.0944105543378357,0.44239793819308165
498,1456704194600037,4.048078456807752,1.2529219878217275,0.6689657708039314
499,1456704194622039,6.024406436868506,1.378200300106185,0.9545460477247364
500,1456704194637042,7.86423000972708,1.4414354041645112,1.2550608407348252
501,1456704194660040,9.120143237146442,1.4319287571365205,1.5182082282778087
502,1456704194682057,9.470313813434146,1.3599763701422798,1.6955840888271199
503,1456704194697058,8.83981814129197,1.2482123665243743,1.7543847106879946
504,1456704194726297,7.428100673460743,1.1207210156599563,1.6859901633396364
505,1456704194742061,5.635025402193707,1.0007530751620066,1.509890371238365
506,1456704194757099,3.9257542194128012,0.9188424013245244,1.2735081634389482
507,1456704194780074,2.691189111157127,0.9225388427453467,1.0488377182136845
508,1456704194801348,2.1504046648800696,1.07610449738833,0.9243393402635228
509,1456704194817086,2.318415768333607,1.444705139431986,0.9885623253982619
510,1456704194840088,3.0360492527137404,2.0670611730237622,1.3041167693698803
511,1456704194861130,4.039364272298635,2.926597885709846,1.8771842462330344
512,1456704194877876,5.041417346941244,3.9327628214536774,2.636073703977614
513,1456704194900881,5.803913486649949,4.9243268754751215,3.436147663562076
514,1456704194921883,6.18323913665605,5.7034464067463695,4.09978210945926
515,1456704194937887,6.145275467545287,6.0963453746368375,4.478436467398837
516,1456704194960623,5.7533685729345585,6.015992500870741,4.504312713940692
517,1456704194981924,5.136118685282306,5.492419085460109,4.2023794888024835
518,1456704195003656,4.441223412681356,4.653254654559618,3.661817351237719
519,1456704195019657,3.788854605224242,3.669913821583572,2.993455335210319
520,1456704195041643,3.244189653046978,2.7034198262437963,2.3006316877097404
521,1456704195057650,2.8185873040668787,1.8732749524461618,1.6695980317958614
522,1456704195079342,2.4903620872670302,1.2493590958610763,1.1676541859838365
523,1456704195101295,2.228828859523467,0.8545472571026724,0.837457502301888
524,1456704195117049,2.011373627317042,0.6696002581880839,0.6875337357087105
525,1456704195139050,1.8303910013442677,0.6403867247899927,0.6877014605911719
526,1456704195161058,1.6897806679719427,0.6908611137748603,0.7770677119514297
527,1456704195177812,1.5938372489909753,0.7427287516422799,0.8841487367312331
528,1456704195206862,1.5360811023608396,0.7376305001536659,0.9504766319777649
529,1456704195222864,1.4964623779791288,0.6534850568597701,0.9468057781389847
530,1456704195243860,1.449395055701374,0.5071401852384951,0.8760472858396303
531,1456704195259865,1.3768744571809695,0.34200783084641734,0.7647320134803685
532,1456704195281916,1.2777326408582312,0.20745544042239208,0.6491197626101207
533,1456704195303237,1.1681550298808279,0.13998325469765754,0.5616950405513036
534,1456704195318919,1.0753035497154313,0.15308679300568057,0.5215707800025583
535,1456704195341919,1.028859206366087,0.23698695496019775,0.5304134060108395
536,1456704195362921,1.053207604916392,0.3652956328875568,0.5740648923532301
537,1456704195379426,1.1603655206409191,0.5045748517000873,0.62893967710743
538,1456704195402933,1.3442257983816341,0.6236796889278003,0.671256653855404
539,1456704195422934,1.578439861649287,0.7010282235613278,0.6859831332847431
540,1456704195438934,1.8199730336363276,0.7285819536220649,0.6719996142906374
541,1456704195461936,2.0183376454252544,0.7118281287168855,0.6415120222821525
542,1456704195483415,2.1286186123389306,0.666138235500271,0.614186045865105
543,1456704195499541,2.124841800842997,0.6110132386880156,0.6082500372428178
544,1456704195523343,2.0090022770748774,0.563891799533219,0.6317466553921323
545,1456704195543628,1.8114250032222592,0.5347363686823787,0.6774043038469459
546,1456704195559346,1.5808316123270478,0.5228103838617039,0.7236646014005126
547,1456704195582848,1.366866203388057,0.5176141893567247,0.7420699728036476
548,1456704195603848,1.2021041137110675,0.5048339543820574,0.7085397104861034
549,1456704195619854,1.0921733575816897,0.4749744147624581,0.6144666135836273
550,1456704195643586,1.0199331757785695,0.42990510962246814,0.4738073682284736
551,1456704195663586,0.9633434136842979,0.38363943083030194,0.3239980482934217
552,1456704195679598,0.9191135609024056,0.3573223588256221,0.22022538800131336
553,1456704195703864,0.9188566561256846,0.37108837271339973,0.22338728980200734
554,1456704195723863,1.0249844951376712,0.43560245909554357,0.3827633695487
555,1456704195739610,1.3020183109998273,0.5455189240910666,0.7165660568873068
556,1456704195762611,1.7732675525817794,0.6774229053053703,1.1970112078763622
557,1456704195783832,2.3857241262352056,0.7947525921930981,1.748406544271244
558,1456704195799829,3.0080696111363454,0.8596147248384393,2.2636030466536643
559,1456704195823832,3.4724965426505614,0.8470794925889973,2.6358816025474163
560,1456704195843834,3.6452341283006415,0.7551319800459214,2.7942444691468844
561,1456704195859833,3.489144604768409,0.6056565748446358,2.7261481925969315
562,1456704195883860,3.0828467820462273,0.43728355998298635,2.4768156042578924
563,1456704195903709,2.5876585815050306,0.2952653918761298,2.127030806374147
564,1456704195919710,2.1860671823957984,0.2233967892742658,1.7640665312609323
565,1456704195942931,2.0273465702946387,0.2590809044654127,1.4629661376195942
566,1456704195963713,2.201137276898738,0.42892385788900134,1.2842550505564685
567,1456704195979723,2.735450699918415,0.742069760222229,1.2785119161772394
568,1456704196002853,3.6025527532792205,1.1820889865063091,1.4829475638627703
569,1456704196023852,4.720993441809017,1.7025895570909708,1.9049657049086381
570,1456704196038733,5.955781141982759,2.2322231984836405,2.5024969580910477
571,1456704196061850,7.1277447894476404,2.6897745727648896,3.1777840473397942
572,1456704196083201,8.039760444404079,3.004121731371619,3.795628922421662
573,1456704196098979,8.515955016148396,3.1320823141410763,4.2222529728086124
574,1456704196121981,8.442108320049197,3.0682316356964137,4.3661672673132035
575,1456704196142985,7.796135131970144,2.842348307164021,4.200580873732288
576,1456704196158983,6.660841729443844,2.505001045763433,3.7613254171487327
577,1456704196181993,5.213175508623416,2.1097836838635207,3.1301085230793353
578,1456704196204998,3.687985843071677,1.702962038381575,2.4141302485247307
579,1456704196218999,2.322773230292595,1.3230421873721525,1.7244282853243693
580,1456704196242001,1.3002945302766025,1.0032402774255673,1.1526020544650617
581,1456704196265004,0.7096784655341357,0.7699404631318048,0.7513348581161423
582,1456704196279549,0.5379736077949071,0.6377174348114311,0.5273133991193465
583,1456704196302523,0.6893761473452031,0.6060973436263463,0.4499584781652685
584,1456704196325524,1.0206996501234498,0.6609980220052387,0.4714106705108466
585,1456704196339552,1.3816374203292177,0.77950690340604,0.5487793561284575
586,1456704196362551,1.651507956116789,0.9351798593405314,0.6595706504717094
587,1456704196385807,1.7664527330069508,1.1023281668213718,0.8043474598230621
588,1456704196399841,1.731700277291531,1.2593570940916456,0.9962006067689357
589,1456704196421915,1.613629369319543,1.391575184035081,1.2425718179821477
590,1456704196445787,1.509967788041648,1.4930470908834867,1.5286763217703698
591,1456704196466915,1.506184947531088,1.565985600839047,1.8114873784228496
592,1456704196482423,1.6363134819091438,1.6161095069807119,2.0289450812578695
593,1456704196504931,1.8670755207688245,1.6444861491781773,2.1222292886180174
594,1456704196526154,2.112775436139426,1.6402768346773207,2.061936875350773
595,1456704196542953,2.2728414783628454,1.5809805319865795,1.8650857237564635
596,1456704196564936,2.273860798313154,1.4432202143269155,1.5925489485728759
597,1456704196586952,2.097607650165479,1.2191435744616497,1.3260501053283853
598,1456704196601953,1.7846456034635338,0.9279806109640942,1.1350738965878926
599,1456704196624954,1.4150343757221027,0.614604514039223,1.0498647254535634
600,1456704196645958,1.0771207175446618,0.33530325499608726,1.0533594419115164
601,1456704196661967,0.8379578538208585,0.13847511313020908,1.0944911885565858
602,1456704196685354,0.7253119573035374,0.049410909687004956,1.1142384581827254
603,1456704196706355,0.7250568737087958,0.06438733566535014,1.0705626094993106
604,1456704196722357,0.7920408618435074,0.15429277101299194,0.9513470242788207
605,1456704196745359,0.8690139520935243,0.27511794107449306,0.7727626938139486
606,1456704196766361,0.9070836837323564,0.38190448672379135,0.5682016420219346
607,1456704196782368,0.8814048977129024,0.44250332327123376,0.3753390881194006
608,1456704196805376,0.7973679873479512,0.44695184929520043,0.22615863685673546
609,1456704196826684,0.6858357689346529,0.4086813633382063,0.1409085777897107
610,1456704196842379,0.5896999619074218,0.35665050634834583,0.12518715703633454
611,1456704196865380,0.5465811595739271,0.32185702621672174,0.16961996159759254
612,1456704196886547,0.5737229490642819,0.32437216960120774,0.25221434799060116
613,1456704196902246,0.6607891242817091,0.366286393188707,0.3435038263442076
614,1456704196924247,0.7735762488365371,0.4328089771900086,0.4140421277913893
615,1456704196948249,0.867303114690652,0.5002132855187997,0.4427858761323821
616,1456704196962255,0.9042520608845261,0.5466304100463144,0.42364750446809857
617,1456704196984723,0.86850890360933,0.5606803454501935,0.36709420794934294
618,1456704197006753,0.7710763361004606,0.5442396419049247,0.29538790861850966
619,1456704197022494,0.6427120900670782,0.5089669971079057,0.23331890172791686
620,1456704197044494,0.5186009405546769,0.46962063338223914,0.19863816085449718
621,1456704197066833,0.4238133204563012,0.4382861174209184,0.1962050215423525
622,1456704197082522,0.3671199033797146,0.4218447749298987,0.2177482601715942
623,1456704197104531,0.34432576098902146,0.4223486398796907,0.24666794364370434
624,1456704197128532,0.3463916506156107,0.4386678666778678,0.26553306108059693
625,1456704197142533,0.3664167601443908,0.4680923630354985,0.26318650323253895
626,1456704197164534,0.4025374647823225,0.5073292817131511,0.23875081553641556
627,1456704197187855,0.4572147111654419,0.5526690649968705,0.20128402154780609
628,1456704197201900,0.5344497279472524,0.5991284380011234,0.16570992584022473
629,1456704197223851,0.6357764387763263,0.6389343751918354,0.14690166874023194
630,1456704197247748,0.7557154489539409,0.6609454858129313,0.15402209057562805
631,1456704197261809,0.8784789417838977,0.6529913229287752,0.18683803482224398
632,1456704197293805,0.9787436655453617,0.6072238596640346,0.23520296101952579
633,1456704197308806,1.028694841935082,0.5256691189283716,0.2822709457836851
634,1456704197321876,1.0106693597225374,0.42214565716457886,0.31089970757983704
635,1456704197343830,0.9303315205601754,0.3187590660688427,0.3109846506684536
636,1456704197368722,0.822047313634254,0.23854091684227713,0.2841227752576638
637,1456704197382759,0.7395775517597671,0.19774676388224252,0.24269044501797168
638,1456704197403945,0.7325044882277589,0.20074475595544744,0.2034024324980581
639,1456704197427947,0.818106947714953,0.23854980710648738,0.17869839432644558
640,1456704197441950,0.9634985001228619,0.2908248245009445,0.17051638933990654
641,1456704197463951,1.0901725318988527,0.3310553793781082,0.16960701168301973
642,1456704197488485,1.1032682008352706,0.3344010486412229,0.16063389789282392
643,1456704197502487,0.9347070781903553,0.2864432984702515,0.1304120984693142
644,1456704197524488,0.5795682724473469,0.18946210737790675,0.0750672405597085
645,1456704197548489,0.1057217685841009,0.06280028527227248,0.002458798515053687
