,timestamp,x,y,z,w
0,1456703940183118,0.0003600094368897585,2.6383513622418798e-05,9.445333550529774e-05,0.00015711816070954613
1,1456703940199117,0.00046142719096036805,6.515155671408111e-05,0.00014908753873044912,0.0001844418541217662
2,1456703940221663,0.0005401133055389968,9.568777763174629e-05,0.00020031970107711004,0.00020227993252980466
3,1456703940245138,0.0005809796096933302,0.00011157399719739097,0.0002461092102254678,0.00020454857105931115
4,1456703940260138,0.0005810947593770434,0.00011014540042340606,0.00028645878599642264,0.00019035509527221052
5,1456703940281140,0.0005491296150180564,9.322354463803155e-05,0.0003226065798903985,0.00016385597365467503
6,1456703940306173,0.0005002141256275074,6.680727807853984e-05,0.00035521789567475947,0.00013218009566601442
7,1456703940359613,0.0004485864909196854,3.9909966179372694e-05,0.0003825200089752119,0.00010235745756528259
8,1456703940360368,0.00040154882918863827,2.284148446540465e-05,0.0003996231078290523,7.86667577380928e-05
9,1456703940368561,0.0003577680415782686,2.5148031065770074e-05,0.00040000764877409745,6.160978959309674e-05
10,1456703940383399,0.0003109144291969549,5.340297413072913e-05,0.00037913890182003185,4.8917945709840916e-05
11,1456703940402364,0.00025678716060191205,0.00010923721504381583,0.0003386781560069007,3.797579080797092e-05
12,1456703940425885,0.0001998893401202293,0.0001882292090822716,0.0002888189081608698,2.832089231128848e-05
13,1456703940440425,0.0001554245929739803,0.0002802694147783805,0.00024691163156774314,2.2864114628757566e-05
14,1456703940486604,0.0001451671259218317,0.0003716433810111861,0.00023263632791037663,2.715686567804971e-05
15,1456703940489394,0.00018907333842903832,0.00044842324402099394,0.00026209595481809005,4.697022520073077e-05
16,1456703940506463,0.000296734658280285,0.0005001124558413284,0.00034370724408662494,8.520584824685476e-05
17,1456703940522135,0.0004626986006226226,0.0005222238339538907,0.00047727509070918326,0.00013951638057840122
18,1456703940544407,0.0006676275039323898,0.0005168060683057345,0.0006553876701221102,0.00020184268222938291
19,1456703940566408,0.0008844605955820787,0.0004907819032517433,0.0008650252697839004,0.00026034102536839866
20,1456703940582411,0.0010866119695412204,0.0004528999759965033,0.0010878418139514143,0.0003031581807707771
21,1456703940604653,0.0012546679203260206,0.00041061573223394137,0.0012993608738958498,0.0003227186656442727
22,1456703940626917,0.0013790231926860176,0.00036811176588853945,0.0014690803976338215,0.0003189149854410591
23,1456703940641459,0.0014577973866059949,0.0003261264588699248,0.0015641610644231958,0.00029982699832254003
24,1456703940664664,0.0014915811689044534,0.0002835381868240109,0.0015584080941913904,0.0002793203366958349
25,1456703940687636,0.0014784340410792468,0.00024000584022166205,0.001445562291049073,0.0002720683476243959
26,1456703940701427,0.001413042887217526,0.0001986810482664933,0.0012522505085668346,0.00028781157268933244
27,1456703940724958,0.0012920539632093803,0.00016808625041117418,0.001043203301013794,0.0003272452021792569
28,1456703940746958,0.0011235828824166687,0.00016227708399255687,0.0009118894330270067,0.00038129239986975746
29,1456703940762155,0.0009349365848032324,0.00019824143527232365,0.0009547740659142822,0.0004339674615101774
30,1456703940784124,0.0007717056381583385,0.00028991043728898713,0.0012356165244039195,0.0004675171903471677
31,1456703940807128,0.0006853001982697394,0.0004399778606441072,0.0017534432387058632,0.0004679338192664926
32,1456703940821906,0.0007130609991332768,0.0006331903457546448,0.002429204190851085,0.0004293445192431429
33,1456703940843190,0.0008607441959687438,0.0008356975361395412,0.0031197978752413235,0.0003565169242272606
34,1456703940867190,0.0010972424087537583,0.0010029588782167846,0.003657212814906717,0.0002651019617097328
35,1456703940881200,0.0013652545141692395,0.0010944927568075395,0.0039005495805973143,0.00017930261674927705
36,1456703940903193,0.001602806470402741,0.001090035530462965,0.0037836495651931614,0.00012696161283133993
37,1456703940926705,0.0017646084803712258,0.0010005670329352957,0.0033419702102230903,0.00013284900190608788
38,1456703940941205,0.001833307326357473,0.0008693190563958885,0.00270832131715346,0.00021186408231902047
39,1456703940963206,0.0018180398246846435,0.0007610860529154386,0.0020764326390301634,0.0003644343193843255
40,1456703940986207,0.0017454565115899794,0.0007418536871300946,0.0016419325591900144,0.0005760911849381533
41,1456703941002209,0.0016504315314412419,0.0008545789819416759,0.0015394248556314155,0.0008216519293519316
42,1456703941023959,0.0015695144644692024,0.001099938993901387,0.0017981566269986084,0.0010721202370575723
43,1456703941046220,0.0015349819615853501,0.0014307178529926131,0.0023335597230345843,0.0013008921855095837
44,1456703941061220,0.0015662719515491027,0.0017637466752673597,0.0029779360414401716,0.0014864621443718136
45,1456703941083221,0.0016593734234970588,0.0020060214443368214,0.003537462484089747,0.0016114201344125038
46,1456703941106222,0.0017801221094615118,0.002086176641199997,0.0038536264702841157,0.0016605758521021394
47,1456703941122729,0.001869671069657919,0.001981305807683369,0.0038488812905963002,0.001622416275271772
48,1456703941143235,0.0018663966233177722,0.0017309750428223763,0.0035447272795041534,0.0014961842478023102
49,1456703941166236,0.0017389489582957242,0.0014329581742452174,0.003049333909635661,0.0013020709004454096
50,1456703941182237,0.0015155523092127256,0.0012185798155009858,0.002518820833138986,0.0010874595184349977
51,1456703941203238,0.0012918447511906814,0.0012111874105126452,0.0021029443366541007,0.0009217443266449917
52,1456703941226745,0.0012068346366064422,0.001479261712854299,0.0018927406160358427,0.0008774072342425151
53,1456703941242251,0.0013914755117992788,0.0020021299926518505,0.0018906299101379448,0.0010031860466835582
54,1456703941263252,0.0019097593914573561,0.0026653625324500607,0.0020167899216833405,0.0013011671786972193
55,1456703941286254,0.002719370969179911,0.003292442824636361,0.0021492084040750426,0.0017192754589408165
56,1456703941302254,0.0036724160305669227,0.0037035502519919077,0.0021778374116207004,0.002163838915067567
57,1456703941323762,0.004558789941301218,0.00377939551476124,0.0020472064798343547,0.002527767078345285
58,1456703941346268,0.0051747091812099095,0.0035044905609452563,0.0017702631703435253,0.002723314104599094
59,1456703941362269,0.0053874283724821255,0.002971880589329291,0.0014123671098829453,0.0027070665393182382
60,1456703941383269,0.005170038553704083,0.0023473028990841625,0.0010579147525452723,0.002488642005083405
61,1456703941406472,0.004595660457184792,0.0018082452704472742,0.0007765798573457702,0.0021216357867055715
62,1456703941423067,0.003799987111503317,0.001484140793747941,0.0006019792246304645,0.001682560274490719
63,1456703941443380,0.0029343978698484,0.0014219970626027402,0.0005276533582239972,0.0012477388614955788
64,1456703941466186,0.002131331975642993,0.0015876424936772976,0.0005182806519813046,0.0008772211275618116
65,1456703941482182,0.0014903342827122,0.00189463616093316,0.0005295824731390931,0.0006092371583502217
66,1456703941503183,0.0010779176481988612,0.0022418683533067247,0.0005282183739900387,0.00046232935097922164
67,1456703941526934,0.0009291231704287322,0.0025425658252809947,0.0005035156368817083,0.00043958628955714584
68,1456703941542397,0.001044864487197034,0.002737622217555729,0.00046673966541491087,0.0005312115305266552
69,1456703941565400,0.0013880289268433136,0.0027960681361406856,0.0004396726355009785,0.0007151511268027591
70,1456703941586737,0.0018852293627751244,0.002709719572772199,0.00043945722930969653,0.0009579364693965998
71,1456703941602402,0.0024391023527681787,0.0024880452233540734,0.0004679856902401851,0.00121829170756437
72,1456703941624002,0.002950205939826934,0.0021560476621492386,0.0005109326750125581,0.0014542961016961872
73,1456703941646024,0.003340892221585021,0.0017546239750965331,0.0005460230761383712,0.0016319351824486124
74,1456703941663025,0.0035705313709885503,0.0013402865443098444,0.000555551089080602,0.0017310662777997201
75,1456703941684185,0.003635421120792803,0.0009801123199711032,0.0005365989604046913,0.001746048994466117
76,1456703941707186,0.003555700447582351,0.000739671624037438,0.0005039467868149677,0.0016818555547489394
77,1456703941722552,0.0033590285832397573,0.00066637406802548,0.0004842249931960569,0.0015494232135583727
78,1456703941743064,0.0030709609623073924,0.0007749662579502238,0.0005039424982232941,0.0013637417648660146
79,1456703941766063,0.0027153953582914133,0.0010419690342406667,0.0005769649615115325,0.001145008554842059
80,1456703941788063,0.0023211953348769923,0.0014114605516291766,0.0006974539480728212,0.0009201008359719558
81,1456703941803064,0.0019280454804392925,0.0018092954990281851,0.0008417714947736958,0.0007211141549820607
82,1456703941827013,0.0015857912431353031,0.002159903521246976,0.0009782542330152605,0.0005796775284921983
83,1456703941848474,0.0013451197426033066,0.002400214345004471,0.0010794355788238156,0.0005185229938744213
84,1456703941863475,0.0012425140005299902,0.0024881852958012632,0.0011302377131113526,0.0005439115095745918
85,1456703941886753,0.0012869183201329197,0.0024067275790770246,0.0011288653669214235,0.000642853421756574
86,1456703941908477,0.0014556579466752314,0.0021650880300981582,0.00108211594631391,0.000786942379278056
87,1456703941923488,0.0017018159266932679,0.0017983664662162677,0.0009996948857184025,0.0009411193157937356
88,1456703941946493,0.0019687599692418496,0.0013639164200438653,0.0008911433778612474,0.0010733271717345658
89,1456703941968499,0.0022048176016316715,0.0009332930554423488,0.0007657834939466027,0.0011613083011708842
90,1456703941985496,0.0023728596914581804,0.0005801739892281989,0.0006337601974369325,0.0011949159290009287
91,1456703942006532,0.002453079105014663,0.0003663005307026934,0.0005063631631089742,0.0011744968426335082
92,1456703942028953,0.0024402210230171336,0.00032790307818104394,0.00039535223009942104,0.0011071285288912897
93,1456703942043901,0.0023382368223755444,0.00046524646778290453,0.00031215636044046037,0.0010027376211244182
94,1456703942067120,0.0021559103399293334,0.0007385941312199783,0.0002676864832217157,0.0008717911580916871
95,1456703942089091,0.0019064271365409075,0.0010738636601657428,0.0002723913384557859,0.0007255283485982113
96,1456703942105906,0.0016115766175358406,0.001379077712764908,0.00033521152420795436,0.0005783674000434865
97,1456703942127003,0.0013073763176581505,0.0015687002356888607,0.00046045872009860674,0.0004502924079197251
98,1456703942148213,0.0010448830322081308,0.0015888496843182922,0.0006433088974084195,0.000366004981692184
99,1456703942165211,0.0008812978605968036,0.0014343223508832526,0.0008661060018523683,0.0003490040276293996
100,1456703942186481,0.0008623559653576837,0.0011500813514248827,0.0010978741351112735,0.00041223441666284896
101,1456703942208500,0.0010032298927475465,0.0008155648642644279,0.0012984474629836689,0.0005499750732083311
102,1456703942226137,0.001277284880167468,0.0005174618222489694,0.001427056072053726,0.0007357334533801594
103,1456703942246803,0.0016188103437370647,0.0003215438469353759,0.0014534162732583395,0.0009278843406873899
104,1456703942268803,0.001939441730984396,0.0002541138969497613,0.0013678011824847754,0.0010807776866377612
105,1456703942285803,0.0021522451293412297,0.0002991838578114131,0.0011861141799764403,0.0011567552911506823
106,1456703942306810,0.0021954121575874876,0.0004111904877164869,0.000947468359984993,0.0011351151836349873
107,1456703942328860,0.002048961354355936,0.0005373433260208511,0.0007048044615626319,0.0010163424695401795
108,1456703942345865,0.00174021884512038,0.0006401794527390583,0.0005118400913276384,0.0008217046470013697
109,1456703942366867,0.0013360163161550498,0.0007107093501371673,0.00041033406400845527,0.0005886513523936911
110,1456703942388868,0.000922800376230334,0.0007663316315052822,0.00042037516554932963,0.00036237088722021715
111,1456703942405870,0.000580740543570974,0.0008347980040992782,0.0005350708397778711,0.00018473159105559717
112,1456703942426820,0.0003616565347594687,0.0009329056729997338,0.0007208872295374952,8.350942842498668e-05
113,1456703942448586,0.000279323244908442,0.0010517454459984424,0.0009249048774636326,6.564917664661665e-05
114,1456703942465586,0.00031428029651033317,0.0011566857294200918,0.0010886259239777573,0.0001171864828621816
115,1456703942486863,0.00042813284021569754,0.001202033388631555,0.001164994313743168,0.00020988904376968278
116,1456703942508802,0.0005793319287303824,0.001152627713350127,0.001133147261944329,0.00031202268105564506
117,1456703942525848,0.0007343501920292432,0.0010014017273384083,0.001005539822760367,0.00039899653816380745
118,1456703942546805,0.0008720885397874024,0.0007742562559584318,0.0008241905328322836,0.0004596745034086842
119,1456703942569030,0.0009824858426766504,0.0005202256800901021,0.0006462065129486207,0.00049611840853193
120,1456703942586030,0.0010620070350053122,0.00029245541167095357,0.0005229744838346642,0.0005177177224392067
121,1456703942607059,0.0011091528124971604,0.00012949755468047244,0.0004810735021344654,0.0005333468843512191
122,1456703942629215,0.0011223610866723656,4.4776502327988985e-05,0.0005135317486754214,0.0005458351656866371
123,1456703942645693,0.0011009181528943376,2.688308373315132e-05,0.0005858273998028388,0.0005513350780811103
124,1456703942674733,0.0010475999822061846,4.8464127874453426e-05,0.0006535646267610699,0.0005431765129917251
125,1456703942688667,0.0009707049078682826,7.902728543855761e-05,0.0006825596238982176,0.0005172683534385937
126,1456703942705928,0.0008834387747138553,9.67911571217679e-05,0.0006613438704803558,0.00047551450672374447
127,1456703942726728,0.0008000640661625404,9.58346838397089e-05,0.0006012013350386167,0.00042523384027970233
128,1456703942747950,0.0007302032021469547,8.667446331551631e-05,0.0005261029071483973,0.00037515345886386366
129,1456703942772043,0.0006743429574656424,9.061325914486867e-05,0.0004596855152236452,0.000330696486219249
130,1456703942787042,0.0006237757922595466,0.00013010976805799364,0.00041643695544184224,0.00029177766214429866
131,1456703942809038,0.000566261566011062,0.00021851080260100705,0.00040026450756057365,0.000254731607777152
132,1456703942825932,0.0004954209645313795,0.00035273305127416226,0.000408559939871249,0.0002172354639594359
133,1456703942847103,0.0004191596065625791,0.0005118761104729465,0.0004370473272481575,0.00018297237671742236
134,1456703942869043,0.00036194115660421447,0.0006629565107578435,0.00048165625660272774,0.00016271842716526636
135,1456703942885894,0.0003581023287007268,0.0007720478930604812,0.0005370528861710908,0.0001705600306042758
136,1456703942906896,0.0004376652827638215,0.0008164137782229753,0.0005943584195696704,0.0002168061378295055
137,1456703942928913,0.0006101280242799325,0.0007924877835226715,0.0006409549476767787,0.0003011470476622427
138,1456703942945921,0.000853711908026221,0.0007162738147959147,0.0006633070341973457,0.0004096733840644339
139,1456703942965927,0.0011164958986115468,0.0006159195540045385,0.000651297007580232,0.0005176052682718193
140,1456703942989027,0.0013312442521969973,0.0005196168949397824,0.000601640243747175,0.0005969459215772868
141,1456703943012004,0.0014388700263539733,0.00044442019684012195,0.0005189675022280169,0.0006260302315874496
142,1456703943027623,0.0014103911042279594,0.0003915375431763388,0.0004148073467009489,0.0005971236828152243
143,1456703943048136,0.0012576589611978778,0.0003502806318453889,0.0003053620089675382,0.0005191368546603266
144,1456703943071353,0.001028732806545075,0.0003077020042792764,0.00020852241868105474,0.00041458054473256304
145,1456703943096172,0.0007906412517227462,0.0002575985825663375,0.00014022155291465408,0.00031208152683185193
146,1456703943108336,0.0006068986554508799,0.00020358639530568094,0.00011070276230224831,0.0002372971713802038
147,1456703943131931,0.0005184279393513953,0.00015536021410959052,0.00012194852068291461,0.00020553565993966156
148,1456703943147728,0.000534559427730582,0.00012153747752626844,0.00016742737191712226,0.00021863047465594921
149,1456703943168735,0.0006360185385276571,0.0001039304148844469,0.00023435919737673012,0.00026671816568584725
150,1456703943191736,0.0007863453634137437,9.656153064554946e-05,0.0003075358930177861,0.00033335703227641185
151,1456703943207731,0.0009452199083091661,8.981747587396748e-05,0.0003731368105187866,0.0004012233169115772
152,1456703943230742,0.0010782282547012582,7.751342512241827e-05,0.00042129412356738523,0.0004560908201840212
153,1456703943251970,0.0011612040504093543,6.335100031742643e-05,0.00044711204039156086,0.0004883719157407396
154,1456703943267756,0.0011806849229469172,6.359014446650692e-05,0.00045070764013455887,0.0004930245494800866
155,1456703943288986,0.001133377095007115,0.00010434547845124899,0.0004369679178214583,0.00046922228009875814
156,1456703943312147,0.0010263993902935701,0.00021400263656671875,0.0004150247897081872,0.00042057814300843724
157,1456703943328154,0.0008775005249466721,0.0004130673277462924,0.00039660268503287257,0.0003554226871472161
158,1456703943349369,0.0007127276374463286,0.0007047000773648026,0.00039241976380348565,0.00028581479263546867
159,1456703943371371,0.00056015312179246,0.0010689350922214033,0.00040722353947443877,0.00022452686666985728
160,1456703943387371,0.00044151112458389166,0.0014624285948984113,0.0004359814041585462,0.00018085860861492766
161,1456703943408377,0.00036585815552067635,0.0018243099461754072,0.0004643324001793354,0.00015740807443760012
162,1456703943431893,0.0003286252244441657,0.002087716429504311,0.00047440624283043927,0.00014977513926705112
163,1456703943447401,0.0003166034163133889,0.002195420962757211,0.00045361021849441084,0.00014966294681692595
164,1456703943468619,0.0003165527743958808,0.0021161663254785344,0.0004017280894218849,0.00014992259403096537
165,1456703943491665,0.0003234339413807836,0.0018567281956546255,0.0003324833772878388,0.00014892322880195896
166,1456703943509405,0.00034426702840261456,0.0014651155219208482,0.00026886691283568,0.00015196700511598357
167,1456703943529414,0.0003955039713207629,0.0010233215754895638,0.0002347968711827846,0.00016906796076155109
168,1456703943551758,0.0004948230924705199,0.0006319445090273708,0.0002473287119814463,0.00021024900140120996
169,1456703943568759,0.0006509205369804362,0.0003913036888282136,0.00031309380216027177,0.00028061173792695446
170,1456703943589026,0.0008558486651313909,0.00038359149245537457,0.0004301970163909233,0.0003773702901132823
171,1456703943611992,0.0010831936202206024,0.0006591655078997204,0.0005935137358421337,0.0004898993592881357
172,1456703943628055,0.0012925967268940693,0.0012282699762639654,0.0007990310980565517,0.0006022641222922868
173,1456703943650124,0.0014386696960722327,0.002057532589447909,0.0010432858916753617,0.0006967179946012497
174,1456703943671018,0.0014817525686079923,0.003069455282657661,0.0013172795299793737,0.0007569600793436551
175,1456703943687019,0.001398823233422685,0.004144533475067765,0.001598686716235117,0.0007711062867055595
176,1456703943709045,0.0011932923008937217,0.005129492728158569,0.001848834503398389,0.0007350368940289145
177,1456703943731560,0.0009011294892529821,0.005857803948354207,0.002019709222635879,0.0006560545631575844
178,1456703943747030,0.00058902456114862,0.006185580556740372,0.0020712164520018473,0.0005550794578924831
179,1456703943768037,0.000341222413843468,0.006036542188364948,0.001992379181069384,0.00046462716046352654
180,1456703943792050,0.0002365609050537567,0.005439296263347776,0.0018156613224145023,0.00042090998019439854
181,1456703943809050,0.00032307566229126337,0.004536902991665674,0.0016144159156296133,0.0004512853019620387
182,1456703943829254,0.000599976652648976,0.003557468639700964,0.0014806343732883583,0.0005614409847665269
183,1456703943851599,0.0010145278303340386,0.0027525696294440913,0.0014908313253205368,0.0007284740635561435
184,1456703943874264,0.0014760217230943044,0.002327399247824615,0.001675638971981256,0.0009049282317908605
185,1456703943888552,0.0018825822480116772,0.002390754508504981,0.00200764369087329,0.001034351225243926
186,1456703943911602,0.002150859312611274,0.0029402290896848975,0.0024121871822865566,0.0010726917946243131
187,1456703943934079,0.002237003097654266,0.0038774960718956303,0.0027939984478847863,0.0010057067113660454
188,1456703943949294,0.0021423980035291503,0.005036286914168199,0.0030663352919602844,0.000853825341840735
189,1456703943971337,0.001906787228202412,0.006209470579059184,0.0031712658692420333,0.000662423825853044
190,1456703943988321,0.0015961709281395748,0.007174421687376441,0.003086705702636762,0.0004830576980879822
191,1456703944010298,0.0012887699510945928,0.007723973465065607,0.002823060401764567,0.0003549310444343732
192,1456703944031819,0.0010567022720389498,0.00770673038553343,0.002416172774674166,0.00029408554294621823
193,1456703944048326,0.0009436491806228045,0.007069592568503376,0.0019220137303815337,0.0002929423012493554
194,1456703944070327,0.0009474243920820472,0.005886466885743546,0.0014132968975289228,0.00032834355392686687
195,1456703944091368,0.0010195328108534207,0.00435717139236123,0.0009733404894543644,0.0003736848916646285
196,1456703944108328,0.001086033719869194,0.002770269893154273,0.0006827942560829456,0.00041003495483618645
197,1456703944132377,0.001081018865944316,0.0014381069131522567,0.0006004805137337493,0.00043196677884562937
198,1456703944151388,0.0009756321290335047,0.0006237328311533668,0.0007454922788549604,0.0004460841860587186
199,1456703944168354,0.0007879877994396645,0.000481386421573614,0.001088717313547878,0.0004635927885389746
200,1456703944190355,0.0005710095304687573,0.001024676521536405,0.0015578035336112053,0.0004913685319543362
201,1456703944211362,0.00038763195198300956,0.002126021776587909,0.0020538547195445636,0.0005267626283585593
202,1456703944228408,0.0002874382753123077,0.0035441189952313437,0.002474192811969686,0.0005589621849861215
203,1456703944250636,0.0002940578953276508,0.004974006805693482,0.002734430840882251,0.0005755661267573583
204,1456703944271412,0.0004039910121832203,0.006112210159320607,0.002784438373726332,0.0005698647202608455
205,1456703944293392,0.000591807793627985,0.006724487342230155,0.002615466224942282,0.0005440759007946614
206,1456703944310430,0.0008167553648967146,0.0066986205943841085,0.0022583791893761177,0.0005066048899346097
207,1456703944341409,0.0010294470262923183,0.006065450118958634,0.001774666537889107,0.00046556429801697825
208,1456703944353411,0.0011801855701098743,0.004980803400409134,0.0012426353941836941,0.000423500847584713
209,1456703944370411,0.001230106175798904,0.0036753135476314635,0.000741561665844763,0.0003773033886968333
210,1456703944391661,0.001163222039710699,0.002390521405447379,0.0003369995356949962,0.0003231689974747296
211,1456703944413413,0.000994137416199648,0.0013223335855509434,7.054115698803317e-05,0.00026262237098323817
212,1456703944430615,0.0007659198936503383,0.0005868352952979073,-4.3833256352841385e-05,0.0002050170428291364
213,1456703944451560,0.0005368953090939669,0.00021315768304764178,-1.7138717356167887e-05,0.00016471820110449138
214,1456703944473512,0.0003613621577506315,0.00015882587173398548,0.00012098271600944419,0.0001547318766062823
215,1456703944490539,0.0002726556292598792,0.00033776365521335285,0.00032968653245247045,0.00018044016036591944
216,1456703944511651,0.00027525898777468194,0.0006502286549574301,0.0005642206341129518,0.00023662156088443456
217,1456703944534115,0.0003475582259011924,0.0010064217711865757,0.0007830741630221311,0.0003089089969228539
218,1456703944549956,0.0004521411065832915,0.0013399832662811149,0.0009545773581296952,0.0003786392678068089
219,1456703944572064,0.000548746536500001,0.0016121051680575691,0.0010614522401075884,0.0004287764958538069
220,1456703944592958,0.0006057212797576605,0.0018095143667201047,0.0011016462732210493,0.0004485990845712593
221,1456703944618090,0.000607317879262956,0.0019394695611960704,0.0010851125600169133,0.00043575507857087275
222,1456703944631472,0.0005555373036790525,0.0020233603905880364,0.0010280572437051012,0.0003955057506923881
223,1456703944654091,0.00046681279824994183,0.00208918412590643,0.0009470965391857878,0.0003380008161286385
224,1456703944669987,0.00036540645987348985,0.0021629496576072277,0.0008552068771780317,0.000274896674917725
225,1456703944692091,0.0002759399608916754,0.002259852352160915,0.0007600764683540066,0.00021642019771379306
226,1456703944713983,0.00021686700405870802,0.002377306341785495,0.0006645521750752723,0.00016942050034031458
227,1456703944730510,0.0001959513437917234,0.002492648752901858,0.0005685812495105638,0.00013652975628002508
228,1456703944751018,0.0002085613569813742,0.0025675539274831152,0.0004719194369493732,0.00011638949576523208
229,1456703944774016,0.0002393815157092321,0.002558842336004758,0.0003766356400371973,0.0001047909973446492
230,1456703944791018,0.0002674835271394937,0.002432680426834367,0.0002883502159141167,9.645533978079429e-05
231,1456703944812020,0.00027370626697759896,0.0021777253088546013,0.00021557008161452593,8.709488650647866e-05
232,1456703944834035,0.00024835788601712506,0.0018131472450559464,0.00016734326292952077,7.530449540065717e-05
233,1456703944850050,0.00019678682344140356,0.0013890369581417697,0.00015020284558052042,6.371470330088039e-05
234,1456703944872050,0.00014059799609487673,0.0009786223303331607,0.00016559860111374687,5.885412558371365e-05
235,1456703944894051,0.00011316762184239493,0.0006636944444527947,0.00020880861877355306,6.944845535976642e-05
236,1456703944911052,0.00014966657154059544,0.0005166666665558019,0.00026989042456878806,0.00010342526637029697
237,1456703944933407,0.00027399739273963736,0.0005842343967906675,0.0003366074483645654,0.000164522441717008
238,1456703944954041,0.00048700910491005693,0.0008775086654343525,0.00039855729949745945,0.00024974291306278245
239,1456703944969921,0.0007607587698191262,0.001371051786154525,0.00045116899038726005,0.00034868496806929897
240,1456703944993079,0.0010420483157983803,0.0020094897044178796,0.0004979636641969644,0.000445152588574047
241,1456703945012920,0.001265697470007858,0.002717816101301292,0.0005496275472844734,0.0005207759259944496
242,1456703945038715,0.0013748025547604484,0.003411866635667878,0.0006193435866641973,0.0005598313563159915
243,1456703945053507,0.0013420516101257463,0.004007830220640559,0.0007155663063704316,0.0005540474915864922
244,1456703945073794,0.0011840093551185693,0.004431458261058605,0.0008352657396190122,0.0005059698926756809
245,1456703945090508,0.0009610445247386384,0.00462727387794116,0.0009612179807191205,0.000429608124715289
246,1456703945113511,0.0007604397565479561,0.004566507746540446,0.0010653758408665527,0.00034774212248653676
247,1456703945133817,0.0006675017477738693,0.004251810920092006,0.001117511471145198,0.00028626264024936
248,1456703945150330,0.0007352051416289038,0.0037180083346385825,0.001095965002890507,0.00026685760619016215
249,1456703945174330,0.0009641250408079015,0.003030112841732121,0.000996636680228377,0.0003000177828566071
250,1456703945193548,0.0013009564191397746,0.0022803124017241453,0.0008372124995388371,0.00038072483400461454
251,1456703945210332,0.0016571463366547071,0.0015836276111120158,0.0006552084075842825,0.0004889478462672557
252,1456703945238770,0.0019411334313112717,0.0010688952921872723,0.0005000458163167684,0.0005956093553174993
253,1456703945253561,0.002091467647396433,0.0008609197191265226,0.0004207991229723462,0.0006722344424032283
254,1456703945270561,0.0020968738725310756,0.0010534132785335714,0.00045265076157806425,0.0007004784035133067
255,1456703945293562,0.0019944684873852256,0.0016792498086987395,0.0006062900173163596,0.000677551997562998
256,1456703945317563,0.0018472833401034156,0.002689313755739833,0.0008643603415890366,0.0006154833275667981
257,1456703945330857,0.0017128213819085027,0.003949515416375596,0.0011864188508424567,0.0005351827583920848
258,1456703945353873,0.0016197615862890411,0.005258679692543916,0.0015195603141259651,0.0004587399036669455
259,1456703945373875,0.0015652774037599212,0.006383439551493776,0.0018091617945147286,0.0004036930129096473
260,1456703945391116,0.0015316154859369663,0.007103386411047397,0.00200599470189498,0.0003807734661413464
261,1456703945412876,0.001506990360424337,0.0072589145261269415,0.0020708118177398807,0.00039362503711771617
262,1456703945433818,0.0014941618563681324,0.0067922312988236205,0.001980180710968704,0.00043823517705437966
263,1456703945450107,0.0015022501059452113,0.005769373199426302,0.0017346540530453584,0.0005021593806973432
264,1456703945473108,0.0015321779109059338,0.00437236107445457,0.001365363818695026,0.0005660802598770541
265,1456703945493327,0.0015700988686087637,0.0028592872494850037,0.0009332900984954649,0.0006093694472372811
266,1456703945516326,0.001593841544491086,0.0015033593673558796,0.000518620731910238,0.0006176668339437029
267,1456703945533995,0.0015849945436179414,0.0005314387465775858,0.000202868312455638,0.000588015396367992
268,1456703945553640,0.0015358060768876527,8.12753268095172e-05,4.962613036932634e-05,0.000528528789147973
269,1456703945576648,0.0014474411579745439,0.00018564561078753902,8.9462986790179e-05,0.00045357154590161135
270,1456703945593354,0.00132499226737946,0.0007799894316466603,0.0003122412038545127,0.00037817057714445575
271,1456703945613356,0.001175665351934624,0.001725454685304042,0.0006684361772740563,0.0003145724361824834
272,1456703945636881,0.0010108186178658881,0.00284032803390856,0.0010798603367812261,0.00027100181520026123
273,1456703945653390,0.0008480283758990039,0.003933923711194912,0.0014580201257319912,0.0002510399673220956
274,1456703945673605,0.000709963027760678,0.004836404348432153,0.0017252073009211694,0.00025293998691454785
275,1456703945696391,0.0006195853264968351,0.0054190976161968855,0.0018317398976412523,0.0002698777714999847
276,1456703945720392,0.0005929149453627056,0.0056047636360747055,0.0017644653563081672,0.0002921887113906355
277,1456703945733981,0.0006314789801214424,0.005372410407656096,0.0015456050414038287,0.0003108357725111651
278,1456703945757191,0.0007174901084676201,0.004760909407809356,0.001224184074055537,0.00031987884311742543
279,1456703945773191,0.0008152115050463205,0.0038693006284226308,0.0008630711446075567,0.00031653518700294384
280,1456703945797194,0.0008807108682069446,0.0028460403231360897,0.0005243345555508061,0.00029980785540894574
281,1456703945817194,0.0008783970489090955,0.0018618042328954027,0.0002559508076468051,0.00026993346718666113
282,1456703945833488,0.0007975410657317704,0.00107042955772008,8.339011626021738e-05,0.00022961158282623742
283,1456703945855282,0.0006595265932099398,0.0005720576112624316,8.471310522434301e-06,0.00018561267309988815
284,1456703945876586,0.0005104296414957538,0.0003936039284284463,1.502812101840118e-05,0.00014851696655744775
285,1456703945893284,0.0004018736854817976,0.000493518259791594,7.828872910763315e-05,0.00012976192385110458
286,1456703945915286,0.00036968261039744063,0.0007863263188569506,0.00017404400325600038,0.00013730404927871483
287,1456703945937079,0.00042024417990000777,0.0011747970613184792,0.000284599402965264,0.00017218055006707503
288,1456703945953613,0.0005296521294572863,0.0015770680183720693,0.0004002214363718287,0.0002276220560261027
289,1456703945975631,0.0006544524964606183,0.0019410611731409838,0.0005165842946029833,0.00029092269082387997
290,1456703945996598,0.0007483385129404914,0.002245032605897145,0.0006302308972583439,0.00034709178704934063
291,1456703946013599,0.0007778234137622715,0.0024880531556864347,0.0007347621571527809,0.000382912919226951
292,1456703946035665,0.0007315832675374189,0.00267657054212878,0.000819786395189439,0.0003902252249810525
293,1456703946057009,0.000621382868729062,0.002813026672804872,0.000872862345655884,0.00036761186185331983
294,1456703946072927,0.0004755860874741925,0.0028903370060236948,0.000883044058141249,0.00032011478442634943
295,1456703946094928,0.0003282888365964089,0.002893013365753321,0.0008442959132650752,0.0002571756853217752
296,1456703946115935,0.00020805154257243135,0.0028032090068336075,0.0007577753053868226,0.00018963459562796854
297,1456703946133486,0.00013011896486270991,0.0026087708655278086,0.000632690399556727,0.0001269680198900447
298,1456703946154958,9.465141625140075e-05,0.0023104635933027173,0.00048560137117918196,7.57396060549822e-05
299,1456703946175959,9.093463446196209e-05,0.001926426240412845,0.00033809680710908423,3.95400766620775e-05
300,1456703946193979,0.00010492932639911748,0.0014930034015670308,0.00021315705937284286,1.993331529828044e-05
301,1456703946214963,0.00012641573367885723,0.0010617969793689731,0.0001309012474548748,1.7548428713655937e-05
302,1456703946236979,0.0001528865204475959,0.0006931373757601702,0.00010443923567677431,3.2604090078465596e-05
303,1456703946252991,0.00018936704482390673,0.00044678915767476637,0.0001365114901076003,6.465406162980378e-05
304,1456703946274990,0.00024518008869770907,0.0003718702090665782,0.00021792454419080102,0.0001118933331913908
305,1456703946295991,0.00032941282680482654,0.0004988791906221814,0.00032912159070846243,0.0001706254251456941
306,1456703946312993,0.00044641605269232353,0.0008360851525463638,0.00044562767557509135,0.000235288654679333
307,1456703946335534,0.0005919594537741985,0.0013700382439412308,0.0005462302168110448,0.00029898027039505597
308,1456703946356446,0.0007507219897256232,0.0020672491475290447,0.0006205814803079913,0.0003541440156330406
309,1456703946373220,0.0008965829066887808,0.002873712213638967,0.0006721546755743838,0.0003932422531950124
310,1456703946395221,0.0009975686529452323,0.003711963260269978,0.000714173571750846,0.0004096540378984101
311,1456703946424436,0.0010261441862740508,0.004479911979466107,0.0007597163455699563,0.0003992790400178994
312,1456703946433704,0.0009725041404121821,0.005058207879793518,0.0008108602858892863,0.0003629389162724737
313,1456703946455630,0.0008548322558186291,0.005330754408659982,0.0008532995965461458,0.0003086283807001165
314,1456703946476601,0.000719235970313927,0.005216394689031331,0.0008607520821250349,0.0002517436387062793
315,1456703946493597,0.0006261104174520849,0.004701979626196665,0.0008080747543039962,0.00021179200569295786
316,1456703946515634,0.0006276130697963001,0.003862646791150464,0.0006864867271381929,0.00020605019923232052
317,1456703946536674,0.000746792956683054,0.0028575866116265945,0.0005126565829822725,0.00024282394389015612
318,1456703946553669,0.0009682489591256921,0.001898650320348777,0.0003268916104479559,0.0003175986676218848
319,1456703946575642,0.0012442855473553962,0.0012006706061588402,0.00018151611982518138,0.00041406824019787387
320,1456703946596645,0.001513528008144692,0.0009301640024411494,0.00012477788028317813,0.0005097668575658473
321,1456703946613680,0.0017236212136646594,0.0011686498968975043,0.0001864657953879567,0.0005839477388575235
322,1456703946635944,0.0018475256255924431,0.0018987945395845835,0.0003696390500315691,0.0006242395689917706
323,1456703946656807,0.001885741857331283,0.003011879383327967,0.000650053697466747,0.0006290785463683133
324,1456703946673804,0.0018548117216542657,0.004329835040067127,0.0009821709882540251,0.0006051345783238289
325,1456703946703804,0.0017716644072886688,0.005635465194767906,0.0013088438750158094,0.00056196158676509
326,1456703946716836,0.0016463087522545434,0.006707474656851117,0.0015717490401739196,0.0005077738033095848
327,1456703946733612,0.001487661996744848,0.007359067286985757,0.001721496020791258,0.000448863831668223
328,1456703946755656,0.0013144653621070931,0.0074777042322894645,0.0017281378984580257,0.0003916382999498738
329,1456703946776883,0.001157520802753854,0.007058245822965389,0.0015916511825721138,0.0003438946187448664
330,1456703946799769,0.0010473408425429724,0.006215473927820152,0.0013481191576492524,0.00031311148501448076
331,1456703946815661,0.0009956001769367026,0.005162368500537049,0.0010653313706932188,0.00030281286092196497
332,1456703946838606,0.0009858104347276362,0.00415266565906389,0.0008251417828623453,0.00031014058778776956
333,1456703946859897,0.0009819473459805213,0.003405593541095168,0.0006975071993406736,0.00032684448317613085
334,1456703946877653,0.0009495945771205252,0.0030434706257647156,0.0007166516728053968,0.0003430576051878902
335,1456703946898619,0.000874805447521855,0.0030674068929195833,0.0008690679013854966,0.0003511340862305202
336,1456703946919817,0.0007687005556311548,0.0033757978920164007,0.0010976114747860216,0.000347318917872074
337,1456703946935855,0.0006572897843949089,0.003810514402493257,0.0013200627799578534,0.0003312736007528157
338,1456703946957958,0.0005656626049827656,0.004208947249946776,0.0014561653173842332,0.00030493424150617116
339,1456703946978991,0.000506626263879606,0.004445042173616278,0.0014540887569411687,0.00027164080790173924
340,1456703946995797,0.000478236426352995,0.004451015879866329,0.0013065016095712854,0.00023536751452854227
341,1456703947019931,0.000468707707592118,0.004218854220062745,0.001049907363635861,0.00019982831021692201
342,1456703947039512,0.0004642623492170577,0.0037864832699923724,0.0007481089890193053,0.0001678197993379076
343,1456703947055027,0.0004553807071321473,0.003217158987460104,0.00046774234271505517,0.00014113970688075372
344,1456703947078029,0.0004388444735424323,0.0025807342565464905,0.00025655040337097787,0.0001208275705018243
345,1456703947099070,0.000416047831193955,0.0019420515148179487,0.00013234881497389725,0.00010727868320626593
346,1456703947115030,0.00039027456611108273,0.0013568259749621651,8.477854706693997e-05,0.00010015873863314983
347,1456703947138552,0.0003650882707479654,0.0008715271119586699,8.642156635006077e-05,9.833715490249508e-05
348,1456703947159065,0.00034363133639916065,0.0005227217671924664,0.00010703185471288765,9.997274546171688e-05
349,1456703947175067,0.0003276217961216127,0.0003335515904829535,0.00012497001450531556,0.00010277088186133247
350,1456703947198068,0.0003162228740051773,0.0003087684834710817,0.00013243189178004715,0.00010449130433075081
351,1456703947219069,0.0003063152193747708,0.0004319589474238963,0.0001341584067465159,0.0001037557717510131
352,1456703947235487,0.0002948675098184336,0.0006676378715869115,0.0001416391692034833,0.00010088871599545093
353,1456703947259972,0.00028200391063993733,0.0009681322264027726,0.00016577917202257345,9.819989577857739e-05
354,1456703947279183,0.00027228214557173993,0.0012830229159678714,0.00021085044058488837,9.920265739860112e-05
355,1456703947295974,0.0002726747897516777,0.0015684085363873509,0.0002718407316295412,0.00010684746624003669
356,1456703947318975,0.0002881570392872271,0.0017939132295364838,0.00033618189013764476,0.00012162871933741282
357,1456703947339797,0.0003178573629582251,0.0019463566064290058,0.00038916464668817014,0.00014079833917181043
358,1456703947355289,0.0003545511842676055,0.0020297770461123535,0.00042050981867542575,0.00015936885148934166
359,1456703947384625,0.000387725027378689,0.002061826636237378,0.00042870147244773726,0.00017231342887392233
360,1456703947399625,0.0004077414656930925,0.0020667298517984822,0.0004207493450782647,0.0001764488435435233
361,1456703947415293,0.0004083949918540373,0.0020657307725066077,0.00040764875149727525,0.0001708867083398787
362,1456703947438814,0.00038743783655013187,0.0020675232532686035,0.0003982583395232985,0.0001563216444750689
363,1456703947459362,0.0003467403835057893,0.002062603393734386,0.0003950035281438876,0.00013436718316816812
364,1456703947475626,0.0002933158545180347,0.0020251190837637227,0.00039347355801491263,0.00010774123559843396
365,1456703947498542,0.00024034033413955342,0.0019229143908366128,0.00038568167240424586,8.094311402272449e-05
366,1456703947519620,0.00020612268508497588,0.0017324632543392604,0.00036491244001600974,6.040290335374389e-05
367,1456703947535809,0.00020985027767408935,0.001452793888961381,0.0003295496649618755,5.34083438197775e-05
368,1456703947558829,0.0002650038814880068,0.001112857042958785,0.00028410589752686613,6.59596297638705e-05
369,1456703947579565,0.00037318747683104175,0.000769537349575316,0.0002372792821837804,0.00010041586642124437
370,1456703947595571,0.0005215031531601608,0.0004969257377600162,0.00019838434702773664,0.00015399798711579263
371,1456703947618568,0.0006850031399554361,0.0003701806940637416,0.0001742069191754362,0.00021882593705769684
372,1456703947639675,0.0008332681865419338,0.000448682559158052,0.00016797707591781956,0.00028348279325746286
373,1456703947669962,0.0009387677509925427,0.0007628676933987511,0.00018098478781693325,0.00033562661972756647
374,1456703947678663,0.0009849640465137922,0.0013071186309299245,0.00021583175105815684,0.00036510542887979415
375,1456703947699665,0.0009727617079850828,0.002038507557347361,0.00027901729014012775,0.00036702537252688016
376,1456703947715924,0.0009235887640049997,0.0028799172456484105,0.0003803256083600147,0.00034396394116165645
377,1456703947738654,0.0008767213093691464,0.003726872738397633,0.0005279433584652963,0.00030627776519583983
378,1456703947760977,0.0008791906207352643,0.004459007623216682,0.000720943980901192,0.00026976893239054816
379,1456703947781776,0.0009696539410450199,0.004957347961568099,0.000943049003951563,0.0002509811028987845
380,1456703947798765,0.0011617895447735194,0.005126623273277953,0.0011617211353977673,0.0002616452273597889
381,1456703947820766,0.0014350922570316557,0.004918695357095237,0.0013344366830041739,0.0003045308911215916
382,1456703947835562,0.0017388062166519317,0.004351036108680486,0.0014208055920462044,0.00037257429260182165
383,1456703947858579,0.002008773902095738,0.003514342477068391,0.0013967714506708648,0.00045169880261511196
384,1456703947880581,0.0021908836302987093,0.002565563582003791,0.001266242794005288,0.0005260553585238885
385,1456703947901954,0.0022617389370176047,0.0017055972630930297,0.001065981431374501,0.0005834240500803017
386,1456703947918582,0.0022376597026545694,0.0011437800968316638,0.0008609629939755873,0.0006185275866273102
387,1456703947941040,0.0021666394919069515,0.0010541090940464108,0.0007296836744368263,0.0006328282063012661
388,1456703947957986,0.002104574530682625,0.0015314456012458346,0.0007421554145629239,0.0006309014196538726
389,1456703947977896,0.002085949519690685,0.0025590850004855578,0.0009368840334288659,0.0006154545842166331
390,1456703947999897,0.002105260784587926,0.0039992672769313285,0.0013048469679678854,0.0005844180306368413
391,1456703948021938,0.002121847406525354,0.005613319454628708,0.0017866584372117783,0.0005327137916760354
392,1456703948038891,0.0020864583275004133,0.007109849311222872,0.0022846957947218467,0.00045802197718280703
393,1456703948059934,0.0019726820488895637,0.008211369295026819,0.0026875365801716307,0.0003664273521757661
394,1456703948088940,0.0017933032989116365,0.008723479843679745,0.0029008055919826567,0.00027343846478287785
395,1456703948097936,0.0015929651710847276,0.008586653011129654,0.0028760880006046576,0.00019910212712130544
396,1456703948120936,0.0014238081403132913,0.00789133044666051,0.0026282129398190667,0.0001599516815047873
397,1456703948141893,0.0013190295611772687,0.006846384292984473,0.0022328009416204865,0.00016221900520446028
398,1456703948158887,0.0012780927900120794,0.00570923590205067,0.0018023901861852535,0.00019956336385689902
399,1456703948180871,0.0012702428636383967,0.0047055982523666355,0.0014493494898126264,0.0002560274485976809
400,1456703948201903,0.0012538655490663614,0.003973957640324048,0.001250923332705737,0.0003125297890578569
401,1456703948225886,0.0012010252809391186,0.003554891745461632,0.0012299376215853222,0.00035376214043182646
402,1456703948240853,0.0011132617002026864,0.0034165881942602896,0.0013552617067787726,0.0003724966597521181
403,1456703948261915,0.0010197293132958754,0.003488961820499485,0.0015571592499855696,0.0003700978726711615
404,1456703948278913,0.0009596908295309607,0.0036844507567615013,0.0017498562593176205,0.00035415552728287447
405,1456703948300911,0.0009604770996940265,0.003904373239637856,0.001855260257736003,0.00033488827249397214
406,1456703948321911,0.0010232461605682063,0.004044313403915873,0.001823196378012942,0.00032137647592655116
407,1456703948338770,0.00112266585539298,0.004009877971222579,0.0016435739238321353,0.0003183046117784299
408,1456703948360014,0.0012181720216733033,0.003741601243089713,0.0013467877317950537,0.00032423434039777866
409,1456703948381016,0.001269470338737351,0.003237085623843163,0.0009919504674288735,0.0003324260461200176
410,1456703948398017,0.0012497253632065782,0.002557037771363652,0.0006470274972029104,0.0003341632734526268
411,1456703948420017,0.0011532973220067316,0.001809418770393752,0.00036810885661755724,0.0003230369689109626
412,1456703948441859,0.0009967422797496836,0.00111714563742202,0.00018518365079397427,0.00029790105699983486
413,1456703948457861,0.00081246173253493,0.0005828838804605461,9.873910320070268e-05,0.00026295312650670996
414,1456703948479862,0.0006367381179458912,0.00026479253935360705,8.680189843461094e-05,0.0002252622411585675
415,1456703948502968,0.0004972284455575515,0.0001700898961729206,0.0001180869504256467,0.00019162712167769777
416,1456703948517967,0.0004054968087950676,0.0002643700935507963,0.00016541463837787374,0.00016659042230361844
417,1456703948540659,0.0003567610064617273,0.0004893808647728872,0.00021454758791999114,0.00015200249116566802
418,1456703948569941,0.0003350976442767217,0.0007817892346222634,0.0002660379097276261,0.00014732353843427054
419,1456703948578676,0.0003210981446489723,0.0010877765009244386,0.00033043029509784725,0.00014995547899983183
420,1456703948600677,0.00029964387802535516,0.0013708055948271336,0.0004194811691471162,0.0001556931767310621
421,1456703948621996,0.0002656687843410174,0.0016122962395030914,0.0005374189985875082,0.00015965910216895237
422,1456703948638484,0.00022553165140682538,0.0018071762600047059,0.0006761375626623138,0.00015763471931041579
423,1456703948659994,0.0001928784467035988,0.001957438379993666,0.0008162979525283157,0.0001472777886359735
424,1456703948680996,0.00018083485604406045,0.0020663873446160074,0.0009333531562644554,0.00012876952919893293
425,1456703948697999,0.00019470044889602776,0.0021349121042071183,0.0010052203396373977,0.00010470070407705566
426,1456703948719997,0.0002290206226019595,0.002159934711009743,0.0010181218610276716,7.919404514509414e-05
427,1456703948744025,0.00027026822842531495,0.0021346862522756468,0.0009688730658008446,5.647699901991158e-05
428,1456703948758069,0.000303177953418626,0.002050558123019752,0.0008641259327209666,3.943759730483151e-05
429,1456703948780033,0.0003169857804790837,0.00190053465958879,0.0007182564620215381,2.8846273067142507e-05
430,1456703948803034,0.0003084727254567575,0.0016840738278235553,0.0005512808135832182,2.3648275870301437e-05
431,1456703948818035,0.000281126392922408,0.0014125190751557632,0.0003870931622610734,2.2166701213592092e-05
432,1456703948841936,0.000241960797148707,0.0011130792123052807,0.0002514663860065835,2.3581312190925767e-05
433,1456703948863208,0.00019815372177011694,0.0008289497576203338,0.00016925908513854018,2.8899891389348618e-05
434,1456703948878207,0.00015491554510742859,0.0006140175780308652,0.00016100468606805043,4.085352693123953e-05
435,1456703948900208,0.00011498736824704465,0.0005227838161899683,0.0002397780101115949,6.266064806538966e-05
436,1456703948923210,7.952998646267403e-05,0.0005985707343904279,0.0004091775236511209,9.619738087136946e-05
437,1456703948939298,4.9896374600659924e-05,0.0008640539966825533,0.0006624131736681595,0.0001404338902587976
438,1456703948960094,2.9637175785648717e-05,0.0013166569373608745,0.0009816957149872498,0.00019086665282353838
439,1456703948983094,2.5880384869724204e-05,0.001928223069596104,0.0013372642489120983,0.00024025873501971876
440,1456703948999096,4.9036028320023636e-05,0.002646154677465141,0.0016865731769564578,0.0002805728453176631
441,1456703949020096,0.00011005456933854004,0.0033939260557130082,0.001975702342344391,0.00030564257249753485
442,1456703949058317,0.00021555044174826485,0.004072180998558133,0.0021458479445274504,0.00031379777744201196
443,1456703949061348,0.00036261459468290636,0.004564981830453431,0.0021466675083115614,0.00030935113035356385
444,1456703949080312,0.0005361596398073351,0.004756482025197999,0.00195484932941442,0.00030186880273560764
445,1456703949103313,0.0007113511510008278,0.004559983082224038,0.0015917250158748448,0.0003028872635672809
446,1456703949119314,0.0008617468037777612,0.003954520254219603,0.001130900442206761,0.00032111251624147803
447,1456703949140326,0.0009706447168607896,0.0030165406110572793,0.0006885902309614831,0.0003582786264423945
448,1456703949163335,0.0010404613913180623,0.0019303909381263283,0.00039586715175594326,0.0004077613843407909
449,1456703949184624,0.0010948323513320746,0.0009648899558426263,0.0003602511195383024,0.0004567297998074776
450,1456703949201337,0.0011710818578686466,0.0004140494571086213,0.0006295890008341647,0.0004910314406970148
451,1456703949222704,0.0013049061671336368,0.0005138686613902733,0.0011713840592887138,0.0005008990658052038
452,1456703949244354,0.0015125681864009933,0.001358672415857361,0.0018758181986452602,0.00048506390291325283
453,1456703949259397,0.001778096517464201,0.0028457642539784253,0.0025827638165165823,0.0004512423594529857
454,1456703949282684,0.002052951080320019,0.004673941310203905,0.0031249231409659637,0.00041262971052461145
455,1456703949304615,0.002271023113481289,0.006408020682600228,0.0033737747233487606,0.00038230889703162903
456,1456703949319613,0.002373217114879372,0.0075985786136842206,0.003274345586736203,0.00036856748491112214
457,1456703949342409,0.0023293655914943196,0.00792066953750953,0.002858951880119722,0.0003730372880903936
458,1456703949364438,0.0021467792149881234,0.007280652791595417,0.0022367523467014465,0.000391456058509748
459,1456703949381421,0.0018630532171398403,0.005847688834266999,0.0015626151143569755,0.0004156190244232088
460,1456703949402456,0.0015293840389241314,0.003995875689832713,0.0009940897743464347,0.00043543461290492327
461,1456703949424421,0.0011943337359268985,0.002180843146125265,0.0006487932540726719,0.0004410075554299163
462,1456703949439429,0.0008951813893118093,0.0008009771717979309,0.0005751876270533046,0.0004250365363473578
463,1456703949462439,0.0006573825115109417,9.454680678361063e-05,0.0007459278472100252,0.0003853043543240329
464,1456703949484441,0.0004978275256614844,0.00010189575526185834,0.001074856220245527,0.0003264872005445303
465,1456703949499447,0.0004276646974729176,0.000691842310698392,0.0014496790103060708,0.00026037261751233096
466,1456703949522725,0.0004529511486083259,0.0016292817809047818,0.001766986480972315,0.0002036858647848883
467,1456703949544652,0.0005727866878441595,0.0026533642322481158,0.001957168520668992,0.00017333590820010157
468,1456703949559666,0.0007750253574214848,0.0035408043765396426,0.0019930633739882954,0.00018029282747488565
469,1456703949582746,0.0010313643608162524,0.004141451431916097,0.0018841957265902918,0.00022464024166664816
470,1456703949604678,0.00129640544154134,0.0043865399293293505,0.0016637557683201038,0.0002943291916866103
471,1456703949619683,0.0015154161985851248,0.004278288943705555,0.0013755678459155618,0.00036861277905174395
472,1456703949642480,0.0016401146757750082,0.0038709291658708444,0.0010645174236888853,0.00042492547434841785
473,1456703949665685,0.0016444497048517322,0.003250394695228756,0.0007701009667640267,0.00044624251781521384
474,1456703949678875,0.0015309702059835642,0.002516399725724838,0.0005217670986415047,0.0004258553871395907
475,1456703949702956,0.0013254292192061141,0.0017680568580630716,0.00033607098967711527,0.00036824688596197666
476,1456703949724892,0.0010655016270808748,0.0010926460735652698,0.00021680273857319798,0.0002868117384566027
477,1456703949739692,0.0007907865471574449,0.0005567929999339696,0.00015847118056388725,0.00019982502642307008
478,1456703949762705,0.0005364857904479,0.00020030389065930841,0.0001514979493109398,0.00012559699912004135
479,1456703949784707,0.00032925476094431246,3.405229263490505e-05,0.0001862218986512495,7.76271110900816e-05
480,1456703949799922,0.00018405447778648533,4.285756079775676e-05,0.00025370774735949215,6.103601595722238e-05
481,1456703949822949,0.00010275365699506184,0.0001923193184208123,0.00034389205954385725,7.16123001648961e-05
482,1456703949844720,7.555383381814883e-05,0.0004371757670347623,0.0004437007318805782,9.793775823729471e-05
483,1456703949860941,8.503902264444655e-05,0.0007292635535453672,0.0005376072055729833,0.00012577409871240245
484,1456703949883910,0.00011147399396194641,0.0010244710833732143,0.0006108916120286212,0.00014297653149755453
485,1456703949904905,0.0001377361585169178,0.0012884785344844368,0.0006536273556528066,0.00014306315741506104
486,1456703949920902,0.00015266400443574637,0.0015005428991678807,0.0006629734838358187,0.00012624844621987857
487,1456703949942987,0.00015220547896169017,0.0016543624375918071,0.0006427170881524027,9.793687578964147e-05
488,1456703949964266,0.00013843061243473684,0.0017557274209677159,0.0006007515247122889,6.57705621597539e-05
489,1456703949981266,0.0001171296751447916,0.0018176447107085643,0.0005459815260495236,3.674226232198213e-05
490,1456703950002603,9.509712297865028e-05,0.0018542192337298255,0.00048588517699225676,1.547280157877176e-05
491,1456703950032338,7.810709144799767e-05,0.0018747533434667707,0.00042530278725430576,3.913240652216317e-06
492,1456703950041300,7.007874357241981e-05,0.0018795580371478607,0.0003664891587117173,2.037289622261856e-06
493,1456703950062273,7.3307396388755e-05,0.0018588385441892059,0.00031011805449824117,8.831673549266482e-06
494,1456703950084191,8.92188901161691e-05,0.0017954882124736108,0.00025667743466440584,2.3027418816913355e-05
495,1456703950100972,0.0001189840018314158,0.0016716702023447873,0.00020758212159098215,4.334271881307576e-05
496,1456703950122184,0.00016341450871617708,0.0014778795048738115,0.00016546231452358465,6.831306210317711e-05
497,1456703950144488,0.00022186464240432993,0.0012219700131456672,0.00013346742586166935,9.594754802393994e-05
498,1456703950168990,0.000290506969131532,0.0009347272643455886,0.0001139229929677406,0.00012349251833452488
499,1456703950181990,0.00036110921169148756,0.0006686126590860152,0.00010707287412611075,0.00014754471533487016
500,1456703950204205,0.0004215829157790093,0.0004880067625669003,0.00011069520019695295,0.0001646032346836978
501,1456703950219992,0.00045872491477361063,0.0004526040375191584,0.00012099025085832865,0.00017190367888772883
502,1456703950242503,0.0004623625424484127,0.0005991976400417609,0.00013446726633419232,0.00016820506539430994
503,1456703950282008,0.0004294312921978229,0.0009287638180533541,0.00015000507768410796,0.00015422834953385996
504,1456703950287239,0.00036648879771661265,0.0014040678343054853,0.00017016539089957384,0.00013260146594825062
505,1456703950309223,0.0002895203714384209,0.0019585973390205363,0.0002011779219294403,0.00010731782400159832
506,1456703950324224,0.00022066994177000426,0.0025129325994511518,0.0002514815599952695,8.285555367094357e-05
507,1456703950347023,0.00018276273743240425,0.0029922047909539326,0.0003290542148423014,6.325989081752425e-05
508,1456703950362024,0.0001935345357350243,0.0033390182703429637,0.0004379988905933775,5.155860360903046e-05
509,1456703950385026,0.00026152381942436847,0.003519152414032459,0.0005750675661503189,4.971833268504764e-05
510,1456703950407330,0.00038458194172728296,0.003520610398390028,0.0007270771845021335,5.900205318403367e-05
511,1456703950423028,0.0005507066873057535,0.0033487942152680234,0.0008705241123908977,8.029277654299681e-05
512,1456703950444539,0.0007403176793292756,0.0030215454334491876,0.0009748598814089378,0.0001139419442468032
513,1456703950467851,0.0009295877025397955,0.0025675964486959616,0.0010102626621457977,0.0001590746649055112
514,1456703950482837,0.001095395979676483,0.002030270336026521,0.0009589821555037194,0.00021285882638337174
515,1456703950504854,0.0012222202219193644,0.0014748390154120138,0.0008268936578543287,0.0002705088864971933
516,1456703950527833,0.0013089358060162615,0.0009938574205916916,0.0006499725599632814,0.0003263276205437966
517,1456703950542852,0.0013708852631379087,0.0007025558284744255,0.0004905129989364799,0.0003751846876165987
518,1456703950564575,0.0014331219520052365,0.0007186641867869157,0.00042108615040296286,0.00041335331465698784
519,1456703950587861,0.0015157671161691638,0.0011282216373125534,0.0004998488441039078,0.0004381584138149716
520,1456703950602865,0.0016192784881454273,0.001947493818051118,0.0007461546346084176,0.0004471535334556096
521,1456703950624897,0.0017206363747189776,0.0030958506005937764,0.001127082659074553,0.00043845006644540073
522,1456703950647595,0.0017863329571871796,0.004392932339688213,0.0015619742591327184,0.0004131339838829813
523,1456703950662596,0.0017958267132770947,0.0055872690083080484,0.00194494627325302,0.0003784127362983112
524,1456703950684897,0.0017590052443037703,0.006414690919965553,0.002178014811236322,0.0003482659775537028
525,1456703950707863,0.001713365997665831,0.0066737310107384,0.0022030137348948873,0.0003392870857724062
526,1456703950722861,0.0017009179113604803,0.006293985430551628,0.002020626551826672,0.0003628813766708479
527,1456703950744609,0.00173957715402623,0.005368883358539724,0.0016894996336020587,0.0004181300543969125
528,1456703950767618,0.001807760149065181,0.004133727693349274,0.0013058724980848674,0.0004898805265349681
529,1456703950784619,0.0018526693922341821,0.002892877070102775,0.0009717179767553564,0.000553900207765693
530,1456703950804620,0.0018185698528886177,0.001924870517894662,0.0007637621772054291,0.0005869555912642626
531,1456703950834604,0.0016788305233689383,0.0014043999380575216,0.0007143211029864442,0.0005767035057296866
532,1456703950844889,0.0014523719441804205,0.0013680233987248638,0.0008082864797723798,0.0005263090043094766
533,1456703950863897,0.001195093271224316,0.0017267407214904928,0.0009934843116077656,0.00045196883249630363
534,1456703950887899,0.0009729198248444716,0.0023104628912123614,0.0011985114769523769,0.000375487686319189
535,1456703950903898,0.0008326234665157075,0.0029243625196327177,0.0013528101527992594,0.00031575648508675233
536,1456703950924900,0.0007845190277158785,0.0034002115742697847,0.0014047951554388225,0.0002822670137519578
537,1456703950946913,0.0008027698045723404,0.0036309558957871896,0.001333877675244413,0.0002725814058286908
538,1456703950963923,0.0008407166223604451,0.0035827449876711633,0.0011529791691263502,0.00027466844196632524
539,1456703950985925,0.0008529081075568927,0.0032857598549346076,0.0009011121258729312,0.000273331610609396
540,1456703951007924,0.0008133728301969423,0.0028115364267727533,0.0006295262817826021,0.00025768099645878613
541,1456703951023925,0.000722284837234993,0.0022471820571265924,0.00038704777945774136,0.0002257171141944638
542,1456703951044437,0.0005999851834421577,0.0016750650760835356,0.00020931947247668461,0.0001839730983398879
543,1456703951066947,0.00047432982509181936,0.0011618694094998408,0.00011386288635223845,0.0001433890672999698
544,1456703951083946,0.0003694787009658071,0.000755932749494882,0.00010036547473213565,0.00011441359077427952
545,1456703951104948,0.0003005569920482935,0.0004887057602149526,0.00015452528363486375,0.00010370910146726741
546,1456703951127949,0.00027333631526616945,0.00037609110415468824,0.00025380824807524265,0.00011308853190845017
547,1456703951144491,0.000285795498011541,0.0004179328937723161,0.00037369295201549824,0.00014008222265687715
548,1456703951163974,0.0003296359290571885,0.0005971438489521662,0.0004930607281922521,0.00017925584884632428
549,1456703951186970,0.00039181593341775796,0.0008815022755171159,0.0005975866214140134,0.00022360850046140992
550,1456703951203971,0.0004567546494736313,0.0012297824448183408,0.000680532611019715,0.0002656861502952415
551,1456703951223977,0.0005091789080787089,0.0016006367306580726,0.0007411682220144343,0.00029836015592335713
552,1456703951246988,0.0005368934626225455,0.0019601691020311924,0.0007818076505141172,0.0003154727516200984
553,1456703951269003,0.0005327927653115534,0.002284446378232134,0.0008047523359767508,0.00031262280567936554
554,1456703951284194,0.0004959397847169375,0.002556083102420519,0.0008101660018488484,0.0002881891867808783
555,1456703951307192,0.00043172842647579715,0.0027575704479389047,0.0007954156916003012,0.0002443049669767678
556,1456703951324003,0.0003508198497432137,0.002866138860324205,0.0007560337641410313,0.00018713455350894578
557,1456703951344741,0.00026650673312636817,0.002854560210329617,0.0006881731794175139,0.00012586141077762316
558,1456703951367029,0.00019102061459967695,0.0026995281417591674,0.0005920179177164505,7.043825887684333e-05
559,1456703951384024,0.00013230525950809797,0.0023953190390772565,0.00047503963205842585,2.897121501628175e-05
560,1456703951405361,9.271179127905476e-05,0.001967196950231693,0.00035356371951418233,5.898753316550395e-06
561,1456703951427329,6.991809869268108e-05,0.0014780646099372176,0.0002512739723339929,1.6385116802154965e-06
562,1456703951443539,5.9266225375004586e-05,0.0010236630265366329,0.00019428371435545815,1.3568331939466878e-05
563,1456703951464049,5.6414060264053376e-05,0.0007155619424354627,0.000203967636322599,3.768031372846175e-05
564,1456703951488048,5.945516822405902e-05,0.000655923242405209,0.00029011279534657574,7.016457445018393e-05
565,1456703951509330,6.990937547667202e-05,0.0009116469912920087,0.0004472159023323601,0.00010835086153940834
566,1456703951524336,9.21261560469563e-05,0.0014959838975251965,0.000655567091094514,0.00015069874006744474
567,1456703951547065,0.00013100470415648038,0.0023623844152300447,0.0008867030338917489,0.00019588586845224366
568,1456703951569073,0.00018871541912309132,0.0034103266954048175,0.0011109990294898657,0.00024149641207029502
569,1456703951584293,0.0002619450145629298,0.004499579906423039,0.0013043921170149614,0.0002831517623960384
570,1456703951607306,0.0003413678900523172,0.005469538461370467,0.0014516681051118191,0.0003148277667241531
571,1456703951629288,0.00041416427932421677,0.006162566138292344,0.0015452909748746675,0.00033048933405384
572,1456703951644830,0.000468783006218789,0.006451845913972728,0.0015810631278446866,0.0003264104318785284
573,1456703951667106,0.0004996678198029607,0.006272855715199327,0.0015540963640719929,0.0003031253276127377
574,1456703951698107,0.0005092930782456756,0.005653055407714752,0.0014592574322554556,0.00026604991332526424
575,1456703951704388,0.0005061380223458099,0.0047287818577283645,0.0012983093642127382,0.00022427326779536166
576,1456703951727438,0.0004998132271547148,0.0037357734823775706,0.001091617145128074,0.00018767106667926523
577,1456703951743628,0.0004968079205456401,0.002964585058488163,0.0008875984095615312,0.00016321978626179654
578,1456703951766138,0.000500111899897248,0.0026857644598935635,0.0007612512072185206,0.00015200510306239814
579,1456703951787474,0.0005128484445661588,0.0030667159380244014,0.0007964248297914776,0.00014857081256985306
580,1456703951809427,0.0005424957398432699,0.004111433328223521,0.0010545902784825883,0.0001435741264990674
581,1456703951832853,0.0006015335246218651,0.005647117812183323,0.0015418386356778526,0.00012918340727401548
582,1456703951847156,0.0007032484707426911,0.007361814309972075,0.0021900216595535475,0.00010493485655556687
583,1456703951869165,0.0008555130520640923,0.008878801708743523,0.002863908483954912,8.093869823688056e-05
584,1456703951886399,0.0010569155760194128,0.009847062493262695,0.003395746119505205,7.610126281463374e-05
585,1456703951907427,0.0012969835801997884,0.010029622049558415,0.003637020394868568,0.00011113374393245377
586,1456703951930168,0.0015579549648553038,0.009372632030964058,0.0035094741746757806,0.0001985530125749821
587,1456703951946180,0.0018144860812027265,0.008034762407551504,0.0030363603292776382,0.00033370682638886643
588,1456703951967190,0.0020316413892936384,0.006357602607602267,0.0023410560623068366,0.0004914425555118914
589,1456703951989196,0.0021665287317654174,0.004773497853700862,0.0016116254852728154,0.000631694830165513
590,1456703952006191,0.0021790086012024256,0.0036751453590068554,0.0010426320439966552,0.0007135417727162797
591,1456703952027490,0.0020499789896002182,0.0032943122191983506,0.0007744975582233268,0.0007122852005259674
592,1456703952050218,0.0017968154483874554,0.003637033700385858,0.0008518495332074086,0.0006310397220552234
593,1456703952066212,0.0014736022950091426,0.004497454566073497,0.0012146836572796025,0.0005002470110474668
594,1456703952087569,0.0011528097447437388,0.005538446909935608,0.0017233429933028227,0.00036500016869255394
595,1456703952111226,0.0008980543982355505,0.006403640253141675,0.0022062456522713267,0.0002666632339315506
596,1456703952126215,0.00074306624242948,0.006820304128752063,0.0025127084855274813,0.00022759469615415618
597,1456703952147227,0.0006862361339068601,0.006662476358018834,0.0025537059108215,0.0002452147692658268
598,1456703952170237,0.0006997094772065498,0.005962137391281172,0.0023196645611104393,0.0002967378998056715
599,1456703952186467,0.0007452995838264462,0.004875599688167606,0.0018732664848553787,0.00035125606901706543
600,1456703952207449,0.0007889369174118692,0.0036250606816702825,0.0013231883578419094,0.0003830549892723609
601,1456703952229238,0.0008084033241172518,0.0024373213811969825,0.0007893553205091963,0.00038014924855643816
602,1456703952254466,0.0007933971515536703,0.0014951876715148331,0.00037093830135275565,0.0003452109851251931
603,1456703952267474,0.0007412915203915046,0.000908426977204686,0.00012555234895463965,0.00029049170846512596
604,1456703952290734,0.0006538485206331254,0.0007052869512518659,6.33082446596403e-05,0.00023096299366069965
605,1456703952306739,0.0005376284049708795,0.0008425832659891318,0.00015438526806220223,0.00017924279199753966
606,1456703952327740,0.00040604269345240743,0.0012295959076793121,0.00034522453816829453,0.0001433436014902157
607,1456703952349490,0.0002787912765910097,0.0017577306762233311,0.0005769396213600596,0.00012638673689236362
608,1456703952366493,0.00017678947661092922,0.0023264735028135867,0.0008000508802028274,0.00012718318954676132
609,1456703952387833,0.00011481264325099645,0.002858699596884477,0.0009819208479890386,0.00014116907782014065
610,1456703952410760,9.600190112604167e-05,0.003303688307337723,0.0011065901125085866,0.00016157814663590817
611,1456703952426494,0.00011104445906586327,0.00363098217193661,0.001169688615211754,0.00018078130992710425
612,1456703952447507,0.00014215922490459388,0.0038205687620521374,0.0011723994961199168,0.0001917409043349234
613,1456703952470516,0.00017000079804001283,0.0038550581246799566,0.0011177530429513807,0.00018955955430244398
614,1456703952486516,0.00018071547355786352,0.0037183476491026474,0.0010105365720096769,0.00017292652203253754
615,1456703952507834,0.00017041634188667972,0.0034027133853208914,0.0008599653591006978,0.00014493809820770087
616,1456703952531519,0.00014543121900484097,0.0029223975677912057,0.0006829187201214794,0.00011274043776655935
617,1456703952545528,0.00011870059939814661,0.0023277926868580843,0.00050536080818753,8.591853002565233e-05
618,1456703952567538,0.00010449301714068457,0.0017122713036220648,0.00036033618204629693,7.413439500438957e-05
619,1456703952590868,0.00011390102057597208,0.001205088382790093,0.00028229605185367237,8.472703395866406e-05
620,1456703952606540,0.00015242576347700048,0.0009486470098941153,0.00029912837692957914,0.00012082532173762863
621,1456703952627832,0.00021945013987670621,0.0010650553976380582,0.00042452920371967626,0.00018026696972779513
622,1456703952649560,0.0003085789200422606,0.0016220667897609317,0.0006534338595160227,0.0002554392720481818
623,1456703952666561,0.0004082015841958551,0.0026090072080640113,0.0009618722414892438,0.00033414637698925184
624,1456703952689562,0.0005029114970249859,0.003928904738455468,0.0013106977969196407,0.0004017314666345301
625,1456703952710820,0.0005771941002426632,0.005407379871411276,0.0016514862726306478,0.0004446111082199503
626,1456703952726564,0.0006216265237481278,0.006816135933879862,0.0019331484523330983,0.0004547528706641927
627,1456703952749581,0.0006391638120207479,0.007909514266995077,0.0021090311560405437,0.0004336503450539545
628,1456703952770582,0.0006473202040954165,0.008473025960277443,0.002145324473236218,0.0003937739355193991
629,1456703952786583,0.0006731637607555477,0.008379404735179945,0.0020311862514415724,0.00035591186649127846
630,1456703952809585,0.000741809776573814,0.007640364855374139,0.0017887473880722237,0.0003423044591854864
631,1456703952830587,0.0008634848186876311,0.0064348924231772036,0.001478246361910991,0.0003675737111111512
632,1456703952846595,0.00102638246564685,0.005093754712055749,0.0011922961209015009,0.00043125313417929526
633,1456703952868827,0.001200077011945665,0.0040299045841834,0.0010358074275521071,0.0005159206371531175
634,1456703952890604,0.0013478369194491295,0.003625388277851511,0.001094551524194919,0.0005927162463414235
635,1456703952912604,0.0014404164444730095,0.0041091495298039085,0.0014029048293378351,0.0006322806053323549
636,1456703952936588,0.001463693538394552,0.005472351673575127,0.0019249103012468063,0.0006162163462430637
637,1456703952950839,0.0014181244234852631,0.007457048901372329,0.002558678949633738,0.0005439658473669522
638,1456703952973841,0.0013147370458912316,0.009623608465863588,0.003163923507982498,0.0004325665393440967
639,1456703952987841,0.0011744779795682795,0.011470732369053866,0.003602343570852074,0.00031040826448786306
640,1456703953010843,0.0010326001635949233,0.012567310009598221,0.003776348864655136,0.00020857278834874427
641,1456703953032851,0.0009412204563589956,0.012660307506493957,0.0036542812643969337,0.00015317350083587025
642,1456703953048862,0.0009597817323394775,0.011736431206074928,0.0032766542240973374,0.0001600366118755771
643,1456703953069868,0.0011304925838746727,0.010026282519496726,0.00274359874446864,0.00023135438590058383
644,1456703953092862,0.0014494346877460377,0.007947098398620758,0.0021870187968432817,0.0003541435775541383
645,1456703953108863,0.0018524414585389599,0.005991253286539049,0.0017338819932198508,0.0005017057369611819
646,1456703953129867,0.002229952112229245,0.004586986585486442,0.0014710430447296204,0.000639650146853973
647,1456703953151890,0.002468553772949559,0.0039767691153971595,0.0014239529808541215,0.0007360240045144863
648,1456703953168884,0.0024990154783626445,0.004159422104393994,0.001556997431198492,0.0007717923385632837
649,1456703953190885,0.0023243878418123857,0.0049162732398896295,0.0017930222572879128,0.0007465301537205474
650,1456703953219889,0.0020135987661826665,0.005903913367361604,0.0020411651963463022,0.0006767110788590686
651,1456703953228889,0.001667172896289613,0.006771273221633865,0.0022214212111530247,0.0005882126633637574
652,1456703953249948,0.001375304912496387,0.007257855001949897,0.0022800321101794675,0.0005067668535840845
653,1456703953271906,0.001187308881150391,0.0072459172076077445,0.0021957646419989317,0.0004495543118495687
654,1456703953288907,0.0011020952525756195,0.0067602997082339255,0.001979355400013865,0.0004203400299353272
655,1456703953310168,0.0010798061456416344,0.00592749554472478,0.0016674977976841535,0.00041008358480492253
656,1456703953332129,0.0010671276333867003,0.004916133857833988,0.001311905590667277,0.00040312813439535015
657,1456703953349145,0.0010236119325801095,0.0038823160228532256,0.0009652595432811646,0.00038580730781357454
658,1456703953370147,0.0009363738698376886,0.0029363574098287466,0.0006681945556483517,0.00035250487498222243
659,1456703953392409,0.0008177965528215007,0.002136103291995747,0.0004420807625414645,0.00030617766760704737
660,1456703953409147,0.000691614561317085,0.001500836762108207,0.0002897975564949621,0.0002545524005157736
661,1456703953430150,0.0005786379300784233,0.0010330483001491917,0.00020262202780774727,0.000205737705869621
662,1456703953452585,0.0004902087606626331,0.0007351490623690465,0.0001686820354900896,0.00016601503580408804
663,1456703953468733,0.00042975286957776037,0.0006139025938049501,0.00017871051656337264,0.00013988397770489845
664,1456703953489729,0.00039760425540031274,0.000673576201453404,0.00022736184804166115,0.0001307482376158033
665,1456703953512607,0.0003939739721930091,0.0009049615914438737,0.0003111296203288688,0.0001407592267494198
666,1456703953528729,0.00041767129571521137,0.0012783110183003659,0.00042529778451356147,0.00016946390869654115
667,1456703953551523,0.0004618361597530947,0.001744450111561143,0.0005620652343763977,0.00021210272172676473
668,1456703953572524,0.000510725311306148,0.0022433585770348457,0.0007107626402996755,0.0002590664832084018
669,1456703953588525,0.0005416141592683664,0.00271639230766054,0.0008597479651520924,0.00029769003196733593
670,1456703953610757,0.0005326472943521023,0.0031176035647169616,0.0009986426066159793,0.000316242068099506
671,1456703953640535,0.00047308114664086946,0.0034204195885236713,0.0011195175780450571,0.00030844730289846656
672,1456703953648536,0.0003700537173410421,0.003617674261721484,0.0012165571740268544,0.0002762525031960378
673,1456703953671546,0.0002476366829660734,0.003715427129882793,0.0012848400346310836,0.00022934834759699553
674,1456703953692755,0.00013838445668581533,0.0037234672086622835,0.0013192245640175552,0.00018163922688791765
675,1456703953708725,7.162704857069895e-05,0.0036467797304246758,0.0013139488960956405,0.0001462564702073375
676,1456703953731714,6.373438900130465e-05,0.003481900469726788,0.0012632433704759594,0.00013109908684337415
677,1456703953752775,0.00011364979408491502,0.003220219781329851,0.0011632617929607893,0.00013641905356007481
678,1456703953768776,0.00020424254446836833,0.0028576273167183136,0.001015404595896303,0.00015517794664252286
679,1456703953791777,0.0003081469682691355,0.002407155458792335,0.0008302028088948449,0.0001760330025254785
680,1456703953812779,0.0003959031678469584,0.0019092742932291953,0.0006298094706809086,0.00018788585753724645
681,1456703953828779,0.00044391591981627243,0.0014341403289919467,0.0004468488881353486,0.00018422290840600114
682,1456703953850715,0.00044006059631926815,0.0010722368395422088,0.00031857288473399726,0.00016551597787319155
683,1456703953872750,0.0003859433899198276,0.000914471690127981,0.00027756640731803843,0.00013888931425542795
684,1456703953888721,0.0002962259437122923,0.001028204725812742,0.0003423648722207319,0.00011552847405217899
685,1456703953918720,0.00019594088200888812,0.001438555200582281,0.0005119462380340612,0.00010712298313848913
686,1456703953931722,0.00011629747439139455,0.002122055321203134,0.0007665333381717608,0.0001226786104464304
687,1456703953948231,8.908600061108907e-05,0.0030132403200752843,0.0010741555072713172,0.0001665030609659817
688,1456703953970740,0.00014000594057253125,0.004018585226201297,0.0013996678242312061,0.00023745621912351324
689,1456703953991748,0.00028183084745702193,0.005030475377713738,0.0017119895543866268,0.0003290941214461418
690,1456703954007743,0.0005089933913733184,0.005937058783339389,0.001986646820328789,0.0004303930158915827
691,1456703954030757,0.0007957043358176372,0.006628968037694237,0.0022035130789137,0.0005271483595571401
692,1456703954053762,0.0010995374502012576,0.007007565995416957,0.002342487874022595,0.000604397181195867
693,1456703954067816,0.001370842299631176,0.006999564002152453,0.0023813597426810005,0.0006498801133587962
694,1456703954090765,0.0015654818744797849,0.006579270849557499,0.0022995312745234383,0.0006576320893438395
695,1456703954112771,0.0016559207043427857,0.005793414869563448,0.0020885985861572327,0.000629927337173122
696,1456703954128765,0.0016362569207813253,0.004776993701292508,0.0017665186504687452,0.0005761260150068867
697,1456703954151070,0.0015207701048561254,0.0037459656621323502,0.0013879128796494143,0.0005088251333964446
698,1456703954172075,0.0013390005748504508,0.002957932128501054,0.0010419235337398522,0.00043960795705308474
699,1456703954195335,0.0011295008749032857,0.002646112174239591,0.0008334138888348569,0.0003766263054654396
700,1456703954211072,0.0009315337124590769,0.002948542464877483,0.0008519548326382141,0.0003244137654568463
701,1456703954232134,0.0007745120400628376,0.0038614928558672497,0.0011405008572210095,0.0002848613005774012
702,1456703954255130,0.000669009526592262,0.005236044585212524,0.0016764642224691892,0.00025831232168656233
703,1456703954271094,0.0006053489805333083,0.0068159112094943915,0.00237185604070258,0.00024433481252001174
704,1456703954292319,0.0005626542873050429,0.008298047836043309,0.0030913976618209826,0.00024202103993607247
705,1456703954315289,0.0005247865953692664,0.009395147658578287,0.003682981676393487,0.000249937810972501
706,1456703954331347,0.0004943267997908606,0.009888066412403274,0.004013892842979993,0.0002662809955080675
707,1456703954360455,0.0004955340196343353,0.009666088886200899,0.004005650138530433,0.0002897063142961528
708,1456703954375161,0.0005629460715893991,0.008754683047252953,0.0036584826834981732,0.0003203736586540317
709,1456703954391140,0.000720826073954953,0.007323676215289076,0.0030557714134422224,0.00035987451665381775
710,1456703954412422,0.0009645967976548763,0.00566300808999544,0.0023431869848467668,0.000409193878494338
711,1456703954435476,0.0012550742146918712,0.004119227573925242,0.0016869672255241774,0.0004656767349316015
712,1456703954450987,0.0015297173350841274,0.0030046603085699414,0.0012258192473509123,0.0005213753202793238
713,1456703954473987,0.001725581457045769,0.0025102516799334344,0.0010345107476901656,0.000564439277494336
714,1456703954495251,0.0018019550207347217,0.0026565470657577777,0.0011111831899070271,0.0005830075297686904
715,1456703954510989,0.0017518047111904607,0.0033009730606373246,0.0013886717158792363,0.0005696762054307167
716,1456703954531996,0.0015991058647611275,0.004195056937639195,0.001760825485161337,0.00052484512377098
717,1456703954555041,0.0013867211544766561,0.005067164903108594,0.00211291619404825,0.0004577387516923519
718,1456703954571037,0.0011615723210348723,0.005700469658751313,0.002348535328633689,0.00038410905436593297
719,1456703954594004,0.0009622317217287277,0.005980548163792087,0.002408777465952024,0.00032075650817687607
720,1456703954615005,0.0008120958622715182,0.005900019317398709,0.002280936941034523,0.0002792027101976643
721,1456703954631200,0.0007191152461847794,0.005525949659512302,0.001995251449951397,0.00026202093874915715
722,1456703954654226,0.0006802803649392158,0.004952035703306739,0.0016112852696158206,0.000263806799765872
723,1456703954675509,0.0006870939823697213,0.004262153479100764,0.0011992485722139336,0.00027559715919510077
724,1456703954691504,0.0007284833484498328,0.003520602077403771,0.0008229153625474703,0.000289443733415412
725,1456703954714231,0.0007902033679915903,0.002784247194337008,0.0005285231437462599,0.0003004860276655912
726,1456703954735786,0.0008533723544931333,0.002117253915720287,0.000340192296072029,0.0003063830706843258
727,1456703954751542,0.0008963719792448862,0.0015906978240150592,0.0002601800595762002,0.0003059820339547381
728,1456703954774542,0.0009017498714674014,0.0012644590974792609,0.0002725076406885072,0.0002990256748368021
729,1456703954795791,0.0008646616259032009,0.0011641027976192662,0.00034933321761503565,0.0002869948523984737
730,1456703954811544,0.000796584311757571,0.001269073317023819,0.0004591680179214177,0.0002737195909963733
731,1456703954834303,0.0007207024400568862,0.001519922554322764,0.000574944208248229,0.0002645470139055149
732,1456703954855546,0.0006611977455567628,0.0018401930293570827,0.0006794687305988436,0.00026417187808177656
733,1456703954871215,0.0006323894060020318,0.002161487753771147,0.0007666465798082593,0.00027426362443927987
734,1456703954894181,0.0006330896630841816,0.002440574470139785,0.0008384954148595382,0.00029212438134118817
735,1456703954915487,0.0006484389761276982,0.002662771331058482,0.0008995124661672976,0.00031112537054339993
736,1456703954931184,0.0006577753559508894,0.0028327361886329307,0.000950910329480662,0.0003228706216929756
737,1456703954954222,0.0006440557399272259,0.002958975626120867,0.0009873389494460146,0.0003201400140016231
738,1456703954975223,0.0006000130512347513,0.0030400599539823,0.0009976758192865136,0.0002993125963558634
739,1456703954991485,0.0005292764372275115,0.0030587280602907296,0.0009695131194985778,0.0002615344641679032
740,1456703955014227,0.0004441510519137288,0.0029862533758436252,0.0008951750063159738,0.00021268116730176724
741,1456703955035748,0.00036226882035375894,0.002795304974351132,0.0007765954555703571,0.00016230088308864465
742,1456703955051029,0.0003025457321142892,0.002476311308127387,0.0006272228592732774,0.00012145925883367886
743,1456703955074030,0.0002801322493737346,0.0020508131412309344,0.00047036190752471556,9.965405011012569e-05
744,1456703955095292,0.00030144365541113783,0.001575906710086084,0.0003343224666070568,0.00010180072430554857
745,1456703955111030,0.00036184075119413006,0.0011366118265709502,0.0002455265485400305,0.0001267624343638216
746,1456703955134678,0.0004479627114387609,0.000827290644464393,0.0002215494523728248,0.00016830974358304464
747,1456703955155559,0.0005440382453060673,0.0007278222672198816,0.0002665498723956574,0.0002180473847648341
748,1456703955171503,0.0006385304957838036,0.0008830055813411532,0.0003709567545827808,0.0002686415732606063
749,1456703955194534,0.0007267312936896559,0.0012924797986045035,0.0005155139595166159,0.0003154851572256755
750,1456703955215308,0.0008076433499067337,0.001913256757124865,0.0006777623046589265,0.00035602128913684813
751,1456703955231507,0.000877888352918145,0.002670947888673508,0.0008380334013634943,0.00038762107614567624
752,1456703955253713,0.0009278422750990641,0.0034730993162558625,0.000982574435869056,0.000405938118837587
753,1456703955275713,0.0009437349226435143,0.004220068853028807,0.0011030397052863197,0.0004053214284686912
754,1456703955291714,0.0009153221568836422,0.004813301906397109,0.0011933983593151894,0.0003814862817881393
755,1456703955314717,0.0008447850698178403,0.0051642230320264534,0.0012466116508353005,0.00033512154187018573
756,1456703955335736,0.0007510437881720846,0.005207133203645265,0.0012537147884803992,0.0002742878280742179
757,1456703955351245,0.0006658056234623061,0.004916487732091729,0.0012068643249247275,0.00021384459547595236
758,1456703955373284,0.000622609285240485,0.004324294294487297,0.0011056688702565135,0.00017165887178246557
759,1456703955395614,0.0006446309744593194,0.0035294175574305856,0.0009636620282821211,0.00016310527341957767
760,1456703955411248,0.000737481699229427,0.0026899030879403234,0.0008105321496621829,0.00019616909277815823
761,1456703955433250,0.0008893862041300586,0.001994160334879057,0.000686915551627447,0.0002688736150369377
762,1456703955455772,0.0010765711117871526,0.001616372440250461,0.0006322861773789149,0.00036948967523407685
763,1456703955470739,0.0012700432984599217,0.001670639226740252,0.0006709669161349476,0.0004791009642410295
764,1456703955492558,0.001441470427384089,0.0021801350396324056,0.0008033884285104396,0.0005759032806519343
765,1456703955515703,0.0015680331954162673,0.0030701496028756542,0.0010071600307666913,0.0006405672087516707
766,1456703955537547,0.0016365643249644283,0.004183462295667055,0.0012464546898142673,0.0006615195165548608
767,1456703955552791,0.0016460179920681683,0.0053110346732971585,0.0014831144267110098,0.0006383124350315345
768,1456703955575790,0.0016064657529758328,0.006232065537667199,0.0016830380752639428,0.0005813281357909066
769,1456703955597792,0.0015342726682659453,0.006759719061332436,0.001816918481205439,0.0005075639641901591
770,1456703955612792,0.0014457728481584156,0.0067865823991168205,0.0018602207846102718,0.00043432430330226155
771,1456703955637607,0.0013525156001557806,0.00631739072607953,0.0017974136408941141,0.000373581420304902
772,1456703955656912,0.0012593359110702116,0.005472829997965635,0.0016295111603582635,0.0003290483604366821
773,1456703955672907,0.0011649459137277759,0.0044549285607596465,0.0013784978560819,0.0002967330007019684
774,1456703955695909,0.001064965081116049,0.003481707425873265,0.0010834352322014018,0.00026866814109634924
775,1456703955717125,0.0009570759976248873,0.0027167854937512853,0.0007897241934502545,0.00023831271867575342
776,1456703955732912,0.0008458202587448498,0.0022254799628293204,0.0005379757371870347,0.00020496847603262413
777,1456703955756733,0.0007432128481040724,0.0019760305998627204,0.0003574738270554139,0.00017466872926536078
778,1456703955777734,0.0006638209619578015,0.0018798902158125791,0.00026404914631227174,0.00015690302076517795
779,1456703955792735,0.0006173400636952901,0.0018454621034447816,0.0002594795659221143,0.00015903170795779416
780,1456703955815737,0.0006036369193841428,0.0018177918381082226,0.00033128713525900835,0.0001815843223094698
781,1456703955837700,0.0006132989945934064,0.0017902528714075193,0.00045459102977511885,0.00021709043109761057
782,1456703955860042,0.0006329801214485885,0.0017908249385373718,0.0005977383430864417,0.00025309344557368843
783,1456703955876036,0.00065197963728232,0.001855231438188497,0.0007306464991614044,0.0002776918296823803
784,1456703955897039,0.0006661949726414028,0.0020005467640203762,0.0008320869086323701,0.0002846744515369298
785,1456703955913040,0.0006776540065526822,0.0022094732940644165,0.0008923089895748317,0.0002757296194535632
786,1456703955936656,0.0006905557380189202,0.0024303117031635956,0.0009104665698822737,0.0002588523584176379
787,1456703955957345,0.0007065696182594999,0.0025918102877656554,0.000889678108645012,0.00024395970389477068
788,1456703955973345,0.0007223052108553945,0.002626748654322439,0.0008335460426351702,0.0002379766980426705
789,1456703955996347,0.000730247773577675,0.0024952589776441095,0.000746089353609387,0.00024174383723510624
790,1456703956017355,0.0007222223328737753,0.0021996746097573626,0.0006341535410447158,0.0002500656770712134
791,1456703956033349,0.0006933388330659578,0.001786225126480762,0.0005097390294762092,0.000254660507687569
792,1456703956056173,0.0006447093851568122,0.0013331767453838976,0.00039004367385092934,0.0002484152878486839
793,1456703956077475,0.000584172738776727,0.0009287848392143637,0.0002944737106218633,0.00022886647853636
794,1456703956093176,0.0005251212791656949,0.0006454854371099005,0.00023946619456632887,0.00019947469841661528
795,1456703956116176,0.000483716850228194,0.000518674975744968,0.0002331867817411886,0.00016844419829731185
796,1456703956139469,0.0004743912235838758,0.0005378515867769993,0.00027250839640918946,0.0001457048645466329
797,1456703956153477,0.0005039467096078452,0.0006538301612164164,0.0003437963091339303,0.00013910096269689995
798,1456703956176648,0.0005663756095827335,0.0007993046636135647,0.0004273496569067617,0.0001511118704145093
799,1456703956196479,0.0006417826767518949,0.0009142657021789875,0.0005037476148836248,0.00017746136391294038
800,1456703956212606,0.0007014997796739909,0.0009657697018101802,0.0005594804849768438,0.00020843356067336673
801,1456703956236223,0.0007182222921528022,0.000954528107068324,0.0005895379292810297,0.00023263386393830815
802,1456703956256741,0.0006770383540535334,0.0009073274194523371,0.0005961674026560531,0.00024170504772552185
803,1456703956272734,0.0005822565667196635,0.0008608543092191283,0.0005850587390760308,0.0002337448264385575
804,1456703956296737,0.00045660675055451256,0.0008453881734551887,0.0005614271354144024,0.00021358520220070526
805,1456703956317736,0.00033321253092466566,0.0008748264984989252,0.0005281233408910603,0.00018983769100992042
806,1456703956332738,0.0002444394101086022,0.0009448191907763723,0.0004864581900585836,0.00017057357054444514
807,1456703956355674,0.00021252634330135218,0.0010369258805322916,0.000438891007153611,0.00016008276147408849
808,1456703956377544,0.00024461129869458127,0.0011255455439861466,0.0003917748450133029,0.00015798708262151643
809,1456703956392713,0.000332042408544232,0.0011852317220418108,0.00035620549776576243,0.00016034384827008863
810,1456703956416545,0.0004529448299616957,0.0011970859260846162,0.00034580192740673877,0.00016160045837815897
811,1456703956437629,0.000577442882116781,0.0011531225946556337,0.00037187903657746104,0.00015648845703377295
812,1456703956452847,0.0006751385423632375,0.0010573620245056328,0.0004381635137296137,0.00014152399693847937
813,1456703956475850,0.0007238907134747966,0.0009233138063414105,0.0005376502995879305,0.00011618997956858638
814,1456703956498850,0.0007180045279689552,0.0007696217107944803,0.0006529928791557858,8.390483745523647e-05
815,1456703956512851,0.0006730132433830765,0.0006169986126704804,0.0007601218115270417,5.250479286687185e-05
816,1456703956536361,0.0006239987778782717,0.00048816714740408066,0.0008339201778675872,3.349264998066946e-05
817,1456703956558870,0.0006158697514506698,0.0004090502834601661,0.0008546992401985329,3.934682837390344e-05
818,1456703956579870,0.0006872384342756986,0.00040714206843739473,0.0008139819790046928,7.904546930787002e-05
819,1456703956595871,0.0008529677961449493,0.000504334040686199,0.0007175766449651828,0.00015322394049767333
820,1456703956618872,0.0010923777510700975,0.0007058280538220603,0.0005842027815002736,0.00025125376010757487
821,1456703956632873,0.0013496760196616909,0.0009909228875779328,0.00043982957066313413,0.0003523864770772396
822,1456703956656185,0.0015496605131832463,0.0013121045799694138,0.00031029426642454103,0.0004316757524734484
823,1456703956679186,0.0016247762030822891,0.0016050444848668662,0.00021546500138758807,0.00046894778397167734
824,1456703956693187,0.0015421119304878646,0.0018062475546495932,0.0001665772325964779,0.0004568669841264067
825,1456703956716188,0.0013169242524390676,0.0018712786939865558,0.00016621783591846696,0.00040391783228242413
826,1456703956739483,0.001005842811584674,0.001786941551979023,0.00020961292428648548,0.0003305735522581611
827,1456703956760326,0.0006838279016519636,0.0015741774309375822,0.0002862963205000745,0.0002605931906948959
828,1456703956775992,0.0004167080012415543,0.0012818830421212812,0.00038179130414231813,0.00021182875681843255
829,1456703956798997,0.00024161593517030443,0.0009737766649012476,0.000479226440808003,0.0001907248017780633
830,1456703956820358,0.00016192451578465197,0.0007114693410401864,0.0005610867346380328,0.00019231972828579854
831,1456703956836662,0.00015539212203765485,0.0005380648944925744,0.0006115472133815302,0.00020467955005682223
832,1456703956859014,0.00018864796073472345,0.0004675140191934876,0.0006196235613041431,0.0002149467977595152
833,1456703956880014,0.00023039318478449005,0.0004838674695621828,0.0005825444331193822,0.00021420673936965278
834,1456703956896015,0.00025893111858562315,0.0005507369928078106,0.0005078001989042526,0.00019965031040793257
835,1456703956919016,0.0002638679269455545,0.0006265558556300852,0.0004121253195815649,0.00017403190989601119
836,1456703956940536,0.00024436146628947504,0.0006788206391363165,0.00031680016885435704,0.00014339828391445668
837,1456703956956046,0.00020631031784932213,0.0006918722275902654,0.00024074524351272932,0.00011429233394546115
838,1456703956979048,0.00015949736093702051,0.0006666066566921494,0.00019453472134920775,9.140285040056292e-05
839,1456703957000316,0.00011474761808132683,0.0006142656451696125,0.00017822480626982284,7.631208047373884e-05
840,1456703957016276,8.12667391570492e-05,0.0005483952363984449,0.00018371637610667613,6.763348649885929e-05
841,1456703957039533,6.466887664471354e-05,0.00047883174347127183,0.0001998643603577478,6.230854729803483e-05
842,1456703957060581,6.605955891815682e-05,0.0004097926116558722,0.0002174896400117095,5.732231654845718e-05
843,1456703957076527,8.218327546587697e-05,0.0003418338963974811,0.00023220150616774996,5.099636593276459e-05
844,1456703957106284,0.0001065128963433968,0.00027563393217790925,0.00024449992928755675,4.339991195478416e-05
845,1456703957120621,0.00013112072530446802,0.000215004802288379,0.00025786786556876857,3.5944399337799394e-05
846,1456703957136286,0.00014896032717257062,0.0001673232793742501,0.00027603976246030665,3.054687415891713e-05
847,1456703957159309,0.00015589520810883607,0.0001411638129894929,0.0003005055722502786,2.8782596054615245e-05
848,1456703957180325,0.00015172775696800105,0.00014243852753297002,0.0003289622625152029,3.1303552473269154e-05
849,1456703957196313,0.00013978822225681198,0.00017107394346875437,0.0003551576480503726,3.76116617055295e-05
850,1456703957219312,0.00012525675157690024,0.00021991579056735518,0.0003703792816627781,4.6145290655526726e-05
851,1456703957240699,0.00011294825800462835,0.0002764135225119573,0.0003664192055478849,5.46121768428352e-05
852,1456703957256137,0.00010542744924713205,0.0003263139742470465,0.00033904555103243035,6.0528166996680584e-05
853,1456703957278137,0.00010207457980708303,0.0003577490199939265,0.00029031394068210203,6.187624216153719e-05
854,1456703957300180,9.939946161509646e-05,0.0003640997439460399,0.00022824444592817113,5.766430111373353e-05
855,1456703957316174,9.258578355214844e-05,0.00034476092310170895,0.00016366545651113313,4.810753899740004e-05
856,1456703957338356,7.778211041178328e-05,0.0003039726777625957,0.00010563466121243353,3.434754044388906e-05
857,1456703957360395,5.413719851464295e-05,0.00024870136928981855,5.772369963834948e-05,1.7923608458668057e-05
858,1456703957376580,2.4486062160207946e-05,0.00018673604992624278,1.7047809548064558e-05,3.4286594223843024e-07
