,timestamp,x,y,z
0,1456703940183118,0.0008459119256432983,0.00044277006181534385,0.0002749618028671442
1,1456703940199117,0.0016952818870732962,0.0032908766333143327,0.0031454514451231172
2,1456703940221663,0.0024609467966434867,0.0057272089236950095,0.005498158825955845
3,1456703940245138,0.003050624669979378,0.00744221457033034,0.006971330554125495
4,1456703940260138,0.0033719048956106137,0.008281478804808014,0.0074601802411111825
5,1456703940281140,0.003363637729187257,0.008260515867700175,0.007100609718865031
6,1456703940306173,0.003037357538397129,0.007546487542915627,0.00618743770896766
7,1456703940359613,0.002501883329676808,0.006418612439972262,0.00507815474872132
8,1456703940360368,0.0019467023747733686,0.005207866578969239,0.004106141911993541
9,1456703940368561,0.0015824638726192558,0.00421685460177218,0.003507400145667655
10,1456703940383399,0.0015644660311833398,0.0036378143173453783,0.0033732697491763207
11,1456703940402364,0.0019361131522512883,0.003502950013356188,0.003652406404215569
12,1456703940425885,0.002617316987385776,0.0036971372297669226,0.004210359128219982
13,1456703940440425,0.003439064180532118,0.004034392943516345,0.004918866973701841
14,1456703940486604,0.0042061348403320785,0.004360862397041084,0.005718953562423891
15,1456703940489394,0.0047632814938241815,0.004625637131136613,0.006612178670523125
16,1456703940506463,0.005042360291622577,0.004878526752649575,0.007585628080948942
17,1456703940522135,0.005073697071116381,0.005202510225900653,0.008531832608104393
18,1456703940544407,0.004957523583058584,0.0056296780315403475,0.00923762095486172
19,1456703940566408,0.004811824746065437,0.0060934006258107545,0.009471592715269473
20,1456703940582411,0.004727782055432449,0.006443513532598227,0.009128538363834432
21,1456703940604653,0.004757397579776171,0.006520138297468595,0.008340550738328583
22,1456703940626917,0.004932191119790779,0.006254949466708289,0.007473607050133849
23,1456703940641459,0.005287272286720025,0.005747125866516934,0.006991261889483284
24,1456703940664664,0.005862312154004883,0.005262396894686708,0.00724425412203475
25,1456703940687636,0.006672413546319636,0.005144820349197291,0.008290641715616408
26,1456703940701427,0.007669033518578581,0.005687509925352143,0.009842274230687106
27,1456703940724958,0.008722732433551966,0.007028347969352921,0.011374612617100495
28,1456703940746958,0.009647545913180162,0.009105204580271286,0.012353854057905319
29,1456703940762155,0.010258511390361064,0.011663830183191367,0.012468782477513804
30,1456703940784124,0.01043105816645337,0.01430184501688707,0.011746990899430095
31,1456703940807128,0.010136121442562351,0.016546016757093766,0.010501415569472079
32,1456703940821906,0.009454651373610462,0.017961200542972178,0.009156488577202528
33,1456703940843190,0.0085962961110173,0.018268000856570495,0.008069730410648145
34,1456703940867190,0.007928801735003127,0.017427324683065532,0.007446689610182087
35,1456703940881200,0.007977402950399204,0.0156542577827006,0.007370838912870616
36,1456703940903193,0.009328985007424264,0.013348272131214079,0.007900761930635703
37,1456703940926705,0.01241515913499404,0.010961882080543411,0.009157305157556103
38,1456703940941205,0.01723264154343925,0.008863915187875852,0.011325612743280637
39,1456703940963206,0.023131918932764773,0.007263825170491508,0.014533482293094683
40,1456703940986207,0.028822109824709296,0.006232202908242048,0.018650599500857973
41,1456703941002209,0.03267606000480519,0.005795433885874616,0.02314358422169296
42,1456703941023959,0.03327986887251069,0.0060379465735753805,0.027129179142772273
43,1456703941046220,0.03002541720186492,0.00713733059266379,0.02965450494885122
44,1456703941061220,0.0234920016321918,0.009287388335745035,0.030080357932661107
45,1456703941083221,0.015437926570906285,0.012526200684049034,0.028377040911190886
46,1456703941106222,0.008374962952551695,0.01655636716325275,0.025204673758491423
47,1456703941122729,0.004851392919188401,0.02067643032790333,0.021764537889883303
48,1456703941143235,0.0066642258332614305,0.023905371201219994,0.01947476642046856
49,1456703941166236,0.014236817791578595,0.02528725688495686,0.019538007307897932
50,1456703941182237,0.02635397643317056,0.024257743194138252,0.022501836389366956
51,1456703941203238,0.04036999849041016,0.020904753989036445,0.02797382812313625
52,1456703941226745,0.05289428699334982,0.016001805945416725,0.03465086670564993
53,1456703941242251,0.06080435008413775,0.010800431177809997,0.04070028793634214
54,1456703941263252,0.06227472495734582,0.006666020386232961,0.04436642707345787
55,1456703941286254,0.05743451537917221,0.004688695446738944,0.04458564555741319
56,1456703941302254,0.04835723231678348,0.00539603164456019,0.041396671730506214
57,1456703941323762,0.03833822314429116,0.008649160036722368,0.03598749144896488
58,1456703941346268,0.03071571176267852,0.013739583761877486,0.030317937692609622
59,1456703941362269,0.027691094552928126,0.019647585917648026,0.026412927452153862
60,1456703941383269,0.029606198348063113,0.02537856682589407,0.025587765020455108
61,1456703941406472,0.03494354038390417,0.03024872454877638,0.02793715966933839
62,1456703941423067,0.04101962600611991,0.0339811241415224,0.03231834893083861
63,1456703941443380,0.045062061215414034,0.03656944378978757,0.03682336223853372
64,1456703941466186,0.04521004245713129,0.03803808906861147,0.039508453060671196
65,1456703941482182,0.04103984862392022,0.03830767740975415,0.039066584204512755
66,1456703941503183,0.033483668025010904,0.03726614565573642,0.035206776176325866
67,1456703941526934,0.024311354826712525,0.0349576870399509,0.02865375877105955
68,1456703941542397,0.015474708603268971,0.031712794801750765,0.020822563654475823
69,1456703941565400,0.00855097869147101,0.028106040362506655,0.013324317586608996
70,1456703941586737,0.004407404042298859,0.02476247176321803,0.00749768164321817
71,1456703941602402,0.0031283506633948484,0.022132391443464454,0.004115402426353325
72,1456703941624002,0.004176698838093948,0.02036435309625445,0.0033138064731926056
73,1456703941646024,0.006689400962411129,0.01933494906317226,0.00470097403828996
74,1456703941663025,0.009776919551686804,0.01879199806970548,0.007560748596383058
75,1456703941684185,0.012730972618723952,0.018510076846142087,0.011073845187608395
76,1456703941707186,0.01510858848826161,0.018384510874267214,0.014493461899791343
77,1456703941722552,0.0167058140769092,0.018452046868615478,0.01723617321711312
78,1456703941743064,0.017459108700036613,0.018846587006085016,0.018891164781565637
79,1456703941766063,0.01734033080647734,0.019686721895148387,0.019197062114666374
80,1456703941788063,0.01632787201471941,0.020921749399519844,0.01804542494411996
81,1456703941803064,0.014491472508068357,0.022232362496983973,0.01553055467237234
82,1456703941827013,0.012123273443203051,0.02308892536699396,0.012011994715262337
83,1456703941848474,0.009776000404085196,0.022969503641164114,0.00812980839898976
84,1456703941863475,0.008119883324013467,0.021629698408554488,0.004723234117268924
85,1456703941886753,0.00767149790728177,0.019291931770632095,0.0026416858490432137
86,1456703941908477,0.008553041324110326,0.016656756433370258,0.0024905868678439837
87,1456703941923488,0.010424190752450128,0.014688768719572835,0.004400070827302503
88,1456703941946493,0.012621000751410314,0.014219345020660044,0.007916583215620498
89,1456703941968499,0.014425438598521053,0.015532555866662162,0.012088968878351125
90,1456703941985496,0.015334596935093576,0.01816005489777024,0.015758185081692213
91,1456703942006532,0.015212806655902763,0.021023814459253384,0.01797039362251283
92,1456703942028953,0.014278363163929898,0.02287552285022105,0.01834587275366096
93,1456703942043901,0.012960266101146199,0.02281478740820058,0.017217458593317872
94,1456703942067120,0.011709284594159762,0.020631787279402073,0.015450636163027496
95,1456703942089091,0.010843334423298705,0.01683633322140659,0.014028090693238807
96,1456703942105906,0.01047023661511392,0.012418081529029774,0.013607253805145691
97,1456703942127003,0.01049122171266552,0.008491961475232351,0.014259187736340138
98,1456703942148213,0.010670101965862246,0.005964224446410569,0.015491816002846336
99,1456703942165211,0.010756509097152603,0.005285530946936696,0.016526414133979123
100,1456703942186481,0.010640341134877223,0.006326084337763202,0.016687849960855473
101,1456703942208500,0.010467620240381602,0.008411616533602864,0.01571838736282562
102,1456703942226137,0.010620545881470558,0.010542702866828462,0.013869635184391374
103,1456703942246803,0.011528492398453907,0.011753991033172127,0.011758183220011768
104,1456703942268803,0.013402431156909138,0.01148469763223788,0.010092224444413085
105,1456703942285803,0.016055653880407646,0.00979735144876629,0.009404217037456638
106,1456703942306810,0.018923919659467638,0.0073449203844173595,0.009876266628445825
107,1456703942328860,0.021277471510861814,0.005113868152256679,0.011288540913726604
108,1456703942345865,0.022513578838163587,0.004071142243579469,0.013090128352487193
109,1456703942366867,0.022384216972353422,0.004855587585429983,0.01457606391237468
110,1456703942388868,0.021060479917489872,0.007599765672552408,0.015129601640774069
111,1456703942405870,0.01903255059683995,0.011907843958146645,0.01445179173969675
112,1456703942426820,0.01692073693728526,0.016979171414861105,0.012684151151988492
113,1456703942448586,0.015278436307043114,0.02184010347181206,0.010366303741610856
114,1456703942465586,0.01443269738918129,0.025612346232980115,0.008243538028444053
115,1456703942486863,0.01439469732521129,0.027725735635193274,0.007002990338285914
116,1456703942508802,0.014878108116697413,0.02801187354811049,0.007039384756610534
117,1456703942525848,0.015435910685264165,0.026678983177124808,0.008329440480356536
118,1456703942546805,0.015660819697383047,0.024210322537117943,0.010447268333651987
119,1456703942569030,0.015349574819799051,0.02122931667938714,0.012707533748322383
120,1456703942586030,0.014550971935548811,0.018367677828835506,0.014392317844797024
121,1456703942607059,0.013485599132308332,0.016166894494297503,0.014994600794026092
122,1456703942629215,0.012395999510688979,0.015015419013016035,0.014390930942478808
123,1456703942645693,0.011419109161333967,0.015090423158029914,0.012860024546377243
124,1456703942674733,0.01054965689295102,0.016284481660651138,0.010923947857298095
125,1456703942688667,0.009702689496944965,0.01815638747514176,0.009089541663898002
126,1456703942705928,0.008826777078178116,0.01998636761946974,0.007635479780437559
127,1456703942726728,0.007992271753998045,0.02097828063143579,0.006560064936080636
128,1456703942747950,0.007389582215743629,0.020551097539625106,0.005693819635568062
129,1456703942772043,0.007224345965344706,0.01858001778803395,0.004876016773300736
130,1456703942787042,0.007568883541767147,0.015451966051727845,0.004074347885574785
131,1456703942809038,0.008269974516691097,0.011897050270358867,0.0033935921637706806
132,1456703942825932,0.00898278356441809,0.008689984026035923,0.003001733063210333
133,1456703942847103,0.009319402207384204,0.006389150321276912,0.0030365869279005333
134,1456703942869043,0.009029119913259677,0.00523517747896702,0.0035422476297893133
135,1456703942885894,0.008113227214899236,0.005205285497878079,0.004456138956128137
136,1456703942906896,0.006822489857609542,0.006121612624310153,0.005641365451959025
137,1456703942928913,0.005553499731928441,0.007714197198171814,0.006936387672729701
138,1456703942945921,0.004701700888719842,0.00962161535092555,0.008186120893329266
139,1456703942965927,0.004526268332997259,0.011391190048367675,0.00924111841045482
140,1456703942989027,0.00506208552627588,0.012547526894852199,0.009950679037826617
141,1456703943012004,0.006103461019332301,0.012731210681101121,0.010188101165562027
142,1456703943027623,0.007273588873507771,0.011831750314398154,0.009910476216968427
143,1456703943048136,0.00816309990931985,0.010025727095847868,0.009206838641674216
144,1456703943071353,0.00848038772894106,0.007696783959021333,0.008283898561159173
145,1456703943096172,0.008142484685093113,0.005293730056836902,0.007387611653825349
146,1456703943108336,0.00726853410911104,0.003207037816226485,0.0067095047906066485
147,1456703943131931,0.0060953563723228545,0.001709706577428308,0.006330161551393928
148,1456703943147728,0.0048728661485113334,0.0009611591199803516,0.006218071286494153
149,1456703943168735,0.003792542875493046,0.0010446167209690015,0.006269462664040895
150,1456703943191736,0.002966578237776873,0.001999596581525355,0.006362336055222197
151,1456703943207731,0.0024416588304107573,0.0038162189712774236,0.006402162680284531
152,1456703943230742,0.0022224633332161513,0.006382189053572202,0.006350122463957795
153,1456703943251970,0.002290972949930242,0.009415471790544257,0.006238424464259011
154,1456703943267756,0.0026202350588029493,0.012448343381908688,0.006179947756947855
155,1456703943288986,0.0031844113460962006,0.014915237859414432,0.006364770020246242
156,1456703943312147,0.003962713084629425,0.016332562514263106,0.007017496245299833
157,1456703943328154,0.004932518122943515,0.016485178467947524,0.008298430369402133
158,1456703943349369,0.006052143935362411,0.015512356757729216,0.010179474482883206
159,1456703943371371,0.007241683324196191,0.013841479372598761,0.012372889219610089
160,1456703943387371,0.008373959496316202,0.012008843312724388,0.014384234553222554
161,1456703943408377,0.00928537392051591,0.010464392597902978,0.015691846188810244
162,1456703943431893,0.009809365202827706,0.009451029365539852,0.015971071219114466
163,1456703943447401,0.00982505065316556,0.008995199496199468,0.015243697641219453
164,1456703943468619,0.009303910803510168,0.00897838036690574,0.013869562305377376
165,1456703943491665,0.008334763611771077,0.009223010036341016,0.012382386514152858
166,1456703943509405,0.007116181390182893,0.009547387248711361,0.011251615713926705
167,1456703943529414,0.005918274073898738,0.009792613340875264,0.010687140049776557
168,1456703943551758,0.005021914791350464,0.009844489033008474,0.010580947525109675
169,1456703943568759,0.004647676091323819,0.009654083725229563,0.010607868739408983
170,1456703943589026,0.004895828892948169,0.009244430002008622,0.010425208163880711
171,1456703943611992,0.00572215149710314,0.008703063038430821,0.009869529617435287
172,1456703943628055,0.006960536172501809,0.008177102999476433,0.009066672814772187
173,1456703943650124,0.008380545110944156,0.007881539410855043,0.008421553107403517
174,1456703943671018,0.009753158389803595,0.008107903562678986,0.008498322634180053
175,1456703943687019,0.010899744516129418,0.009199466734433602,0.009821990364082666
176,1456703943709045,0.011714513596522017,0.011456217762856609,0.012645724210000807
177,1456703943731560,0.012167181689429365,0.014964706429811762,0.016757687041831875
178,1456703943747030,0.012297048749021723,0.019417287301956916,0.021431637277717977
179,1456703943768037,0.012198979676438789,0.024052018955404715,0.02560044070566681
180,1456703943792050,0.01199070889242251,0.027834802695016224,0.028225701266659953
181,1456703943809050,0.011762539180407053,0.029877956181358026,0.02870827569334515
182,1456703943829254,0.011542136021188452,0.029907321143945044,0.027131691483067086
183,1456703943851599,0.01131732556223963,0.02850365905982383,0.024204746522411717
184,1456703943874264,0.011116703674846013,0.02694886710318747,0.020934436254365116
185,1456703943888552,0.011082343492586381,0.026728686425440185,0.018211907488523
186,1456703943911602,0.011452756163434302,0.028915961735303593,0.016528392328956712
187,1456703943934079,0.012438779585153662,0.03369439537658516,0.01593398223712069
188,1456703943949294,0.014067144148637427,0.040210616018446416,0.016189817686400123
189,1456703943971337,0.016100271945691396,0.0468200419920645,0.01695740843989972
190,1456703943988321,0.01808706922330244,0.05164844003104914,0.017889248506512214
191,1456703944010298,0.01951205350969617,0.0532551819455921,0.018613075540744255
192,1456703944031819,0.019962260125730474,0.051122400802661234,0.01871809050881203
193,1456703944048326,0.01924007447184215,0.04576925055908931,0.017839088939862722
194,1456703944070327,0.017390069596883165,0.03847438515316162,0.015818116681203163
195,1456703944091368,0.014660620867933112,0.030766969487604816,0.012834167717037813
196,1456703944108328,0.011455643738075076,0.023919996811322872,0.009407749242010259
197,1456703944132377,0.008305469570732731,0.01863583813291931,0.006271538811602452
198,1456703944151388,0.0058237548605445015,0.015000976602830916,0.004171775268520668
199,1456703944168354,0.004603091795324799,0.012670694347539344,0.003683697430057629
200,1456703944190355,0.005055426703906856,0.011167543300967751,0.005093016348378488
201,1456703944211362,0.007258890151899675,0.010152233560109528,0.008349143895069243
202,1456703944228408,0.010882611157308318,0.009558904179759013,0.013071210964651383
203,1456703944250636,0.015236460989598893,0.009566530911995125,0.01859160863265115
204,1456703944271412,0.019448222875263845,0.010453917921411267,0.02403699279372167
205,1456703944293392,0.02270814566397681,0.01241204635049803,0.028461837107547898
206,1456703944310430,0.02447418636075553,0.01537394692451183,0.03104739316617253
207,1456703944341409,0.02455605064848703,0.01891410637751866,0.03133012086817826
208,1456703944353411,0.023081358212114926,0.022280273088589465,0.029353659121511107
209,1456703944370411,0.020405101844983675,0.024597368787738435,0.025642137021136126
210,1456703944391661,0.01700835065306275,0.025183839847438785,0.021000918601979675
211,1456703944413413,0.01339724376002202,0.023817566559325074,0.016258315418727683
212,1456703944430615,0.010013019216754238,0.020803831706475866,0.012068368536108555
213,1456703944451560,0.007175714626811967,0.016830572271297726,0.008827264052484504
214,1456703944473512,0.005068605385508915,0.01271441851211508,0.006689723743161674
215,1456703944490539,0.003743896017308945,0.009157463902360498,0.005634739410989299
216,1456703944511651,0.003131817043555271,0.006587447408536564,0.00552500171872303
217,1456703944534115,0.00305905933734118,0.005107908141143012,0.006135323823781949
218,1456703944549956,0.0032911545984807746,0.00455104723749318,0.007170118042738549
219,1456703944572064,0.0035971563617147803,0.004595923949417217,0.008305034482161673
220,1456703944592958,0.003816231309485212,0.004898076480177145,0.00925965162718571
221,1456703944618090,0.0039014908855981197,0.005184633087631484,0.00986893036976121
222,1456703944631472,0.003923445558344274,0.005295242265261339,0.010109410581233156
223,1456703944654091,0.004026637091828123,0.005177980999711081,0.010061159603331205
224,1456703944669987,0.004349016111063396,0.004865001242325486,0.009829753209376724
225,1456703944692091,0.0049343510308916035,0.004446568823729222,0.00948226996200299
226,1456703944713983,0.005681170193985788,0.004044365260038015,0.009040458138084226
227,1456703944730510,0.006361683493254444,0.003777162563860513,0.008527690707713044
228,1456703944751018,0.006709961705946353,0.0037217980673941,0.008023934602024774
229,1456703944774016,0.006539342026250988,0.003886546193475157,0.007680020185365137
230,1456703944791018,0.005831131133980748,0.004216347712833497,0.007676435926250462
231,1456703944812020,0.004753595211465872,0.004633757037352027,0.008151728844822747
232,1456703944834035,0.0036078921247819622,0.005093178461966293,0.009139826471215237
233,1456703944850050,0.002727569776515719,0.005609489536202304,0.010537463990422885
234,1456703944872050,0.0023678735618101357,0.00623501178582475,0.01210015000904116
235,1456703944894051,0.002619833293346831,0.0069973507278197865,0.013468273028589621
236,1456703944911052,0.0033803507093115664,0.00784636116244203,0.014242355226530421
237,1456703944933407,0.0043962638088961515,0.008660852236987475,0.014116980523304097
238,1456703944954041,0.005369820844218485,0.00932620040976798,0.0130347881902014
239,1456703944969921,0.006078040367751359,0.009836446619430061,0.011274858262779647
240,1456703944993079,0.0064481403205595466,0.010342906627638974,0.009396998795121594
241,1456703945012920,0.0065584744486882635,0.011096385176552644,0.00803658538475025
242,1456703945038715,0.006576727341773941,0.012298946402534082,0.00763464408555492
243,1456703945053507,0.006671919072483073,0.013945683172670007,0.008230764726459155
244,1456703945073794,0.006935953513109027,0.01575123449107996,0.009423303308796094
245,1456703945090508,0.00733765825710264,0.017211135170936556,0.010532892636559377
246,1456703945113511,0.007720806478624177,0.017778570886347857,0.010912588676246964
247,1456703945133817,0.007851310441757976,0.01708408084088793,0.01026086528268638
248,1456703945150330,0.007512494553722844,0.01510322093289617,0.008771896698180178
249,1456703945174330,0.006633731220284638,0.012191443138049773,0.007041826814450485
250,1456703945193548,0.0054169247322726965,0.008968304799483497,0.0057913325753920115
251,1456703945210332,0.0044041102696855145,0.006117257325256955,0.005557887562162204
252,1456703945238770,0.004418363397708011,0.00420520064428508,0.006501576366624068
253,1456703945253561,0.006330083759427905,0.003591478345420272,0.008389637447639424
254,1456703945270561,0.010673219555882324,0.0044336304933115835,0.010738893214645514
255,1456703945293562,0.017246875325826912,0.006756516945980192,0.013040373361045472
256,1456703945317563,0.024918565696316022,0.010537110313344035,0.014972179359205102
257,1456703945330857,0.03181518954620349,0.01575111387868772,0.016510585265718965
258,1456703945353873,0.035922318044366,0.022333701712806516,0.017876786390376882
259,1456703945373875,0.03588028170346373,0.03005505078460478,0.01932990682606553
260,1456703945391116,0.0316059093974099,0.038393840067025675,0.020920081327076793
261,1456703945412876,0.02440886200664196,0.04652605263478326,0.022369412321509553
262,1456703945433818,0.016520042121809714,0.053473886891834084,0.023185332193029737
263,1456703945450107,0.010259481832684181,0.05834518503821225,0.022954925870976126
264,1456703945473108,0.007239653649785428,0.06054402650257289,0.021630796772872874
265,1456703945493327,0.00793235568684619,0.05986879638331402,0.01961009825463241
266,1456703945516326,0.011699875754986325,0.05648884272157953,0.01754502580335338
267,1456703945533995,0.017167965605664318,0.050861663483421776,0.016008480591531853
268,1456703945553640,0.02272384218768612,0.043674687274292544,0.01523759721205888
269,1456703945576648,0.026966615739076064,0.03583160517575979,0.015118561552353164
270,1456703945593354,0.029027514330212237,0.02840302278253718,0.015401087146011964
271,1456703945613356,0.028726490512927895,0.02245168107387862,0.015965966286914282
272,1456703945636881,0.026548573486153054,0.01875883277215534,0.016936444885608255
273,1456703945653390,0.02345308573317964,0.017592852630061908,0.01855054932540449
274,1456703945673605,0.020566084682997133,0.018649500595743173,0.020893887453065505
275,1456703945696391,0.0188299017407968,0.021183966471296566,0.023683952614837623
276,1456703945720392,0.018702918245793954,0.02425927518453383,0.026249708314683616
277,1456703945733981,0.02001278851667308,0.027006480531857748,0.027733370459416023
278,1456703945757191,0.022033563908387566,0.02880665784657171,0.02743019037901311
279,1456703945773191,0.02377415057293275,0.029345244042165226,0.025107845676546323
280,1456703945797194,0.02436584020766268,0.028559136692093763,0.02113883030481548
281,1456703945817194,0.023374212133805177,0.026556376658309202,0.016364488975942018
282,1456703945833488,0.02089345454464991,0.0235726734596791,0.011758705703361587
283,1456703945855282,0.017412028953644642,0.019955151013028673,0.008076027785862786
284,1456703945876586,0.013569490651373894,0.01612284720693552,0.00566223836967708
285,1456703945893284,0.009946520192844898,0.012485508321913023,0.0044813196486888345
286,1456703945915286,0.006952844462400295,0.00935487291867936,0.004276254439729218
287,1456703945937079,0.004797861969107381,0.006896393106851424,0.004732381797025467
288,1456703945953613,0.0035048045442082434,0.0051401339370003695,0.005561330829534069
289,1456703945975631,0.0029451440306597124,0.004030282895399572,0.006508351311384618
290,1456703945996598,0.0028892398768806315,0.003474453597368938,0.007338021022654596
291,1456703946013599,0.0030723204007788007,0.0033671210478238493,0.007846614837650754
292,1456703946035665,0.0032633801231887628,0.0035908608079913496,0.007907643468665928
293,1456703946057009,0.0033152200428128594,0.0040167545730885965,0.007522683275816671
294,1456703946072927,0.003180597384148126,0.004518570848524503,0.006842174400421344
295,1456703946094928,0.002897784123364931,0.004996921225780694,0.006132729487968015
296,1456703946115935,0.0025618676510169003,0.005399037616927965,0.005689822992975594
297,1456703946133486,0.0022949185055838456,0.005723175560246241,0.005723158172701554
298,1456703946154958,0.0022157131566297385,0.006005930060429148,0.006263059238202254
299,1456703946175959,0.0024057402813655896,0.006296713704440678,0.007133429647243393
300,1456703946193979,0.0028781694538114566,0.006626026990681358,0.008009011863788799
301,1456703946214963,0.0035655364959528584,0.006977349654927325,0.00853706577564147
302,1456703946236979,0.0043360518714849845,0.007275582985356947,0.008475643583204443
303,1456703946252991,0.005032872184247193,0.007403089027620961,0.007794637487268411
304,1456703946274990,0.00552130288085049,0.007245535254490789,0.006700675890785426
305,1456703946295991,0.005732004518835377,0.006756559997323398,0.005574202929043655
306,1456703946312993,0.005694243316441157,0.006018519578963541,0.004840110985502614
307,1456703946335534,0.00555079721827851,0.005270834470167427,0.004824040247080701
308,1456703946356446,0.005539507110960916,0.004880186671866446,0.005657471352750178
309,1456703946373220,0.005932123179876174,0.005243749210758352,0.007269547951109031
310,1456703946395221,0.006944097738634839,0.006648734320813665,0.009450514171446319
311,1456703946424436,0.008649784768163775,0.009141138475574974,0.011928155601614235
312,1456703946433704,0.010933605700865389,0.01245943786798525,0.0144018706553445
313,1456703946455630,0.013485068737018576,0.01606152278960339,0.016530336350196816
314,1456703946476601,0.0158346328328711,0.01923802469478408,0.017925783724415768
315,1456703946493597,0.01744187037478307,0.021286470500896153,0.018216173176406933
316,1456703946515634,0.01785532027344431,0.02171501369997926,0.01718256351081129
317,1456703946536674,0.0169229410800429,0.02042943519712945,0.014909261933211777
318,1456703946553669,0.014960436041255598,0.01783269744970639,0.011857165313539681
319,1456703946575642,0.012758214984408574,0.014770229733124396,0.008800433666028125
320,1456703946596645,0.01137184193220855,0.012316775725201207,0.006629281490435755
321,1456703946613680,0.011753505532029768,0.011487560145756585,0.006086725107803579
322,1456703946635944,0.01436717356762621,0.012988366305041377,0.007544307182774095
323,1456703946656807,0.018952387759904103,0.017069443002827152,0.010907239032425364
324,1456703946673804,0.024565500164250943,0.023479948161115746,0.015677423278316532
325,1456703946703804,0.029931238097812844,0.03149920118959354,0.0211275507173253
326,1456703946716836,0.033981118593976296,0.04004271715641004,0.026490801683610884
327,1456703946733612,0.03630594925863949,0.04785317767232105,0.031077929738756324
328,1456703946755656,0.03724796647636655,0.053758097536910125,0.034303588280917015
329,1456703946776883,0.037570236767378154,0.05693198096510858,0.03569375253889845
330,1456703946799769,0.0379232938981595,0.05708659369344554,0.034967142704557565
331,1456703946815661,0.038446890637522324,0.0545317211054999,0.03219139658447215
332,1456703946838606,0.03872260171756538,0.050077363487191065,0.02789258940313821
333,1456703946859897,0.03805723683210206,0.044787794951767844,0.022982592974088664
334,1456703946877653,0.035896255173482446,0.03965572508237788,0.018491301267139236
335,1456703946898619,0.03213291725275138,0.03531782277205255,0.015233063227808364
336,1456703946919817,0.027180454821307442,0.031933506793410234,0.013575483796927584
337,1456703946935855,0.021816639913603234,0.02927030720276858,0.013404515273036292
338,1456703946957958,0.016904834840165923,0.026925421289504394,0.014267231696050674
339,1456703946978991,0.013126656983553885,0.024552230335399022,0.015595924033177494
340,1456703946995797,0.010837746662215389,0.021992713242922984,0.01690533280584574
341,1456703947019931,0.010075332298338943,0.019299617922734626,0.017896326295366596
342,1456703947039512,0.010644738579343152,0.01668751783158062,0.018459228672326217
343,1456703947055027,0.012184885665953951,0.014444384168611027,0.01861749871818584
344,1456703947078029,0.01418821629576721,0.012813281752989937,0.018465056302288802
345,1456703947099070,0.016036698625644184,0.011872268220899181,0.018121949011775076
346,1456703947115030,0.01711574808129538,0.01147323271593238,0.017694452369679762
347,1456703947138552,0.016989476020256234,0.011290120439621604,0.017223776084957565
348,1456703947159065,0.015547567821667146,0.01097014033344968,0.016644134496188873
349,1456703947175067,0.013036004444883318,0.01031548174196534,0.015796368784764418
350,1456703947198068,0.009955176549495208,0.009390746295432647,0.014517134830740441
351,1456703947219069,0.006882342876504075,0.008487997552107515,0.012759594082095612
352,1456703947235487,0.00429931349263775,0.007974311221893243,0.0106583090390696
353,1456703947259972,0.0024867944256825214,0.008119671714230222,0.008482067305231076
354,1456703947279183,0.001509762177811232,0.008993037087871096,0.006507104462070605
355,1456703947295974,0.0012771217858576589,0.010447147995007471,0.004904109232206946
356,1456703947318975,0.0016292039074834463,0.01216345498231026,0.0037081310966945993
357,1456703947339797,0.0024063320090448137,0.013729327097788046,0.0028685820354467074
358,1456703947355289,0.003476562838627182,0.014739120213321598,0.002329113237122467
359,1456703947384625,0.004726592672221657,0.014909484869748173,0.0020861286513088532
360,1456703947399625,0.0060327863447594025,0.014177250713656137,0.0021968561305915923
361,1456703947415293,0.007234561590073248,0.012736756209230654,0.002733599293247817
362,1456703947438814,0.008133954240991132,0.010991815763626,0.003705534135692787
363,1456703947459362,0.008535397721832625,0.009431342980635547,0.004989250628348151
364,1456703947475626,0.008314731897958403,0.008466907995900861,0.006314568683330282
365,1456703947498542,0.0074814427273187855,0.008289486634550862,0.007332029559985441
366,1456703947519620,0.006196425305955642,0.008803643409690193,0.007743463763973261
367,1456703947535809,0.0047328628140148495,0.009669326694999484,0.0074318411979398275
368,1456703947558829,0.0033981839445931263,0.010432763745853328,0.006517417334214079
369,1456703947579565,0.0024499966301720676,0.010687482900537481,0.005307011900401322
370,1456703947595571,0.00203730320731636,0.010200389060406087,0.004165888546829912
371,1456703947618568,0.002185848547112666,0.008968306260706603,0.003384043824013804
372,1456703947639675,0.002826283013035422,0.007210362362637342,0.003105181494676932
373,1456703947669962,0.003843698709808423,0.00531850929785105,0.003343532497858524
374,1456703947678663,0.00511856218372452,0.003778654880168307,0.004059729584284968
375,1456703947699665,0.006537246258256704,0.003061975930239338,0.0052357773069232685
376,1456703947715924,0.007971960045850456,0.003491280925923209,0.0069000707351975525
377,1456703947738654,0.009255529849735707,0.005112152417538171,0.009095162371048474
378,1456703947760977,0.01018927984458895,0.007624327113126662,0.011819400219322212
379,1456703947781776,0.010605644222940103,0.010427786432521699,0.014983531825478602
380,1456703947798765,0.010465423599172304,0.012796200253856789,0.018406202393787492
381,1456703947820766,0.009933755130002418,0.014124850398978421,0.02184375948862709
382,1456703947835562,0.009381403579759397,0.014152279403018593,0.025029301693639355
383,1456703947858579,0.0092985941102924,0.013059291262281865,0.027701686950671343
384,1456703947880581,0.01014953826236077,0.011405427675447891,0.029632826004954486
385,1456703947901954,0.012204276139062269,0.009936685105754664,0.03067533572988198
386,1456703947918582,0.015378347315440083,0.009347653972423329,0.030828301909118377
387,1456703947941040,0.01913342556681264,0.010088877337118017,0.030282579468588304
388,1456703947957986,0.02253123343692917,0.012283058131107884,0.029404292186779115
389,1456703947977896,0.024510447196509126,0.015766097825083612,0.028655567127287895
390,1456703947999897,0.024334566641447588,0.020218049374319997,0.02849775541872949
391,1456703948021938,0.022017939053761294,0.025311689114233746,0.02932023821237962
392,1456703948038891,0.01849615138414907,0.030792403306530776,0.03137532105711494
393,1456703948059934,0.01540420159457862,0.036430232131711884,0.03465603207397381
394,1456703948088940,0.014508821826468458,0.04187228716075269,0.03872368922821225
395,1456703948097936,0.01701743771475341,0.04652971163736071,0.042629836350155825
396,1456703948120936,0.023060905634120034,0.0496496490969764,0.04511073007419457
397,1456703948141893,0.03157935401079547,0.05059339249165565,0.04507007901990437
398,1456703948158887,0.04067262761961951,0.0491595259816,0.04212145420796074
399,1456703948180871,0.04827677802306967,0.04572417122731807,0.03686217758053063
400,1456703948201903,0.05286021564034931,0.041092699569399295,0.030705880199834588
401,1456703948225886,0.05380886133248285,0.03616488279915662,0.025368519717097065
402,1456703948240853,0.05137113019504817,0.03162936115605193,0.02225005821923889
403,1456703948261915,0.04632637313500895,0.027844753213386437,0.021935491801753453
404,1456703948278913,0.039651756400616356,0.02491415022628968,0.023975182154449062
405,1456703948300911,0.032325767382599985,0.022844626100871648,0.02704142966302252
406,1456703948321911,0.02523511216226949,0.021657230290099062,0.02943499143805164
407,1456703948338770,0.019116774377373528,0.02136841516478293,0.029744898166293377
408,1456703948360014,0.014510619011922594,0.021874025503048095,0.02737166968665262
409,1456703948381016,0.011714702102760344,0.02285827066000087,0.02269071942356666
410,1456703948398017,0.010733769160245614,0.02383467549401006,0.016815157317538774
411,1456703948420017,0.011236435738460282,0.024312791458242267,0.011103462571843789
412,1456703948441859,0.012573758708094965,0.02398395636623497,0.006653334216835846
413,1456703948457861,0.013912128919022361,0.022816152471273464,0.0039946462654003225
414,1456703948479862,0.01447390234429999,0.021020729463572568,0.003069372666686803
415,1456703948502968,0.013794354011953438,0.018928238740990914,0.0034330328887971244
416,1456703948517967,0.01186753422334054,0.016843202110063137,0.004517086326480947
417,1456703948540659,0.00910915628950494,0.014941101865816755,0.0058108108953543805
418,1456703948569941,0.006168351453730439,0.01324429088080574,0.006923756282718886
419,1456703948578676,0.003687373148391956,0.01167770925946993,0.00758162407312909
420,1456703948600677,0.002105480718847167,0.010165714464063582,0.007624684994169359
421,1456703948621996,0.001561696123651847,0.008707840825958772,0.00703091361713468
422,1456703948638484,0.0019067736507266879,0.007388655337152624,0.00593300223294959
423,1456703948659994,0.00279898204113234,0.006326809129350641,0.004587736995533243
424,1456703948680996,0.0038371656788666704,0.005609337072664938,0.003293186847905769
425,1456703948697999,0.004684111161928156,0.005258092191169381,0.002294679195640445
426,1456703948719997,0.005148228271162489,0.005242243158036548,0.00172989766064458
427,1456703948744025,0.005209500272570987,0.005515160468363841,0.0016316351063216468
428,1456703948758069,0.004990548005789422,0.0060420788212436904,0.0019671310561109553
429,1456703948780033,0.004687515855813288,0.006798163705868331,0.002676471234950454
430,1456703948803034,0.004488693420541184,0.007738259861510872,0.0036838096691312215
431,1456703948818035,0.004513433215081694,0.008755785670967024,0.004881250258878357
432,1456703948841936,0.004791130400627691,0.009656018068902412,0.006109142314678759
433,1456703948863208,0.005275188872937154,0.010168962470627988,0.007162519935977847
434,1456703948878207,0.005870141730915475,0.010016600862698894,0.00783446622070318
435,1456703948900208,0.00645492587984399,0.009024907980680072,0.007977370610647435
436,1456703948923210,0.006902677652571879,0.007238464308841736,0.007551733947162875
437,1456703948939298,0.007106769041688107,0.004977446142735423,0.006650182168289403
438,1456703948960094,0.007014873940346788,0.002795289697204632,0.005505447595027765
439,1456703948983094,0.006658485908646355,0.0013410369298111312,0.00448554617213286
440,1456703948999096,0.006162362943001957,0.0011680172104019879,0.004055016992927998
441,1456703949020096,0.005729235486451271,0.002542531625443091,0.004673097863565722
442,1456703949058317,0.005602858535003134,0.005306940192057809,0.006629222644822121
443,1456703949061348,0.006007700339511227,0.008853211627445822,0.009869916529427872
444,1456703949080312,0.007063632518768412,0.012252052647430864,0.013910629433558346
445,1456703949103313,0.008697041789822167,0.014536415733739403,0.017911904732063756
446,1456703949119314,0.010599821096543633,0.015059162125630474,0.020924174219375643
447,1456703949140326,0.012286807303592369,0.013782185714798213,0.022213667359293303
448,1456703949163335,0.013254579033786334,0.011369187536039044,0.021539410542868006
449,1456703949184624,0.013180399840165233,0.009042674308477603,0.019282124740468067
450,1456703949201337,0.01207272332867995,0.008254289351010616,0.016389944580632962
451,1456703949222704,0.010314814204094561,0.010256122843749027,0.014151899775274542
452,1456703949244354,0.008595950455110225,0.01567192842163288,0.01383427577553046
453,1456703949259397,0.007755536422947012,0.024187998527886098,0.016248966734519543
454,1456703949282684,0.008568208401007058,0.034499722823140594,0.021376668575296406
455,1456703949304615,0.011497379674318329,0.044602917596915384,0.02820777163139565
456,1456703949319613,0.016463065349950175,0.05237724304201247,0.03493909347576359
457,1456703949342409,0.022707031288485873,0.056244405947827744,0.03953998830117312
458,1456703949364438,0.028863630884637444,0.05562939082853502,0.040499738223463616
459,1456703949381421,0.033307759646029986,0.051053022379651876,0.037409784212975965
460,1456703949402456,0.034720294747202764,0.04385400887403296,0.031076582194903436
461,1456703949424421,0.0326352934393271,0.035679718631151394,0.023124868048863004
462,1456703949439429,0.027664506414074676,0.02795890630978853,0.015345356229909676
463,1456703949462439,0.021253076766697167,0.021565522604579813,0.00913570017422854
464,1456703949484441,0.015104024065388423,0.01678923003925422,0.00524318060438044
465,1456703949499447,0.010574153472407219,0.013564814109756186,0.003799820989655562
466,1456703949522725,0.008293059968491959,0.011766413556942643,0.004505884093436206
467,1456703949544652,0.008102773048094893,0.011356792482322195,0.006812056738865537
468,1456703949559666,0.00927760015372355,0.012321812836766826,0.010033613624293822
469,1456703949582746,0.010890671345704704,0.014499687379995012,0.013425661316914542
470,1456703949604678,0.012161782726503593,0.017479514336928636,0.016282098269911026
471,1456703949619683,0.012669091668724791,0.020656230255431764,0.018072187199074895
472,1456703949642480,0.01239657818433387,0.023393542038422286,0.01855842262078545
473,1456703949665685,0.01165055142443766,0.02518523728467344,0.017826804514275
474,1456703949678875,0.010893655421911655,0.025740545965691555,0.01621557517433249
475,1456703949702956,0.010546763954266252,0.024986951152235922,0.014189544219039809
476,1456703949724892,0.010816962578470712,0.0230288198893948,0.012218106726410431
477,1456703949739692,0.011609983440856944,0.020110531702942462,0.0106817153574653
478,1456703949762705,0.012564278553843195,0.01660630827307927,0.009803782590125442
479,1456703949784707,0.01320125151511444,0.013005664769782673,0.009610574097952188
480,1456703949799922,0.013130575359629911,0.009836963220221097,0.00993527628645186
481,1456703949822949,0.012210390876272759,0.007521289301318237,0.01047278391217903
482,1456703949844720,0.010582676637921588,0.0062324895998631235,0.010868659618009906
483,1456703949860941,0.008583404412707368,0.0058585048208586715,0.010816371111945382
484,1456703949883910,0.006597965637982557,0.006088112628045429,0.010143163957888394
485,1456703949904905,0.004938155558792033,0.006559786769315285,0.008867937707916634
486,1456703949920902,0.003776777217728185,0.006982997628985448,0.007209887628705223
487,1456703949942987,0.0031394049710327387,0.007184401063110452,0.00553282908422374
488,1456703949964266,0.0029369894168278926,0.007094825221162564,0.004235977851238437
489,1456703949981266,0.003019158379607851,0.006724808452897861,0.0036278664078092785
490,1456703950002603,0.0032297965623647646,0.0061563049697768825,0.0038251087033512746
491,1456703950032338,0.0034509296715882765,0.005535112389535545,0.004706076087640326
492,1456703950041300,0.0036253303032664514,0.0050337050695638975,0.005935767928367452
493,1456703950062273,0.003752903887153921,0.00478322084646512,0.007063757081946601
494,1456703950084191,0.0038636771276515294,0.0048105924441452326,0.00767397856154431
495,1456703950100972,0.003981145017245923,0.00502213808879029,0.007535309517754534
496,1456703950122184,0.0040967390095406776,0.005246363909594967,0.006687076411219553
497,1456703950144488,0.004170469948736049,0.005312882048419023,0.005417511085291148
498,1456703950168990,0.004156630268751147,0.005125838038769058,0.004148284105977909
499,1456703950181990,0.004039287678546586,0.004697425603203987,0.003283758719758202
500,1456703950204205,0.003857016503661997,0.00413262283700508,0.003087974382647215
501,1456703950219992,0.0036987293267345773,0.0035829374233657682,0.0036239724037201598
502,1456703950242503,0.0036648952113961793,0.0031977476863776226,0.004757542501410926
503,1456703950282008,0.003811182405962457,0.0030927061455576646,0.006208310420250073
504,1456703950287239,0.004109159118351453,0.0033369686175963456,0.007626819367247779
505,1456703950309223,0.0044523125989330585,0.003948725526187547,0.008679965469563795
506,1456703950324224,0.004707756513658026,0.004887566926654726,0.009129500902801162
507,1456703950347023,0.00478625362005479,0.006041578637351067,0.008887807889983869
508,1456703950362024,0.004693820244088632,0.007220621716290197,0.00804036431110875
509,1456703950385026,0.004539566886676019,0.008173747335022975,0.006834886071034579
510,1456703950407330,0.004496687236142126,0.008639365686268314,0.005637582509079888
511,1456703950423028,0.004733948193547171,0.008417642372427005,0.004849008205648803
512,1456703950444539,0.0053461413906540555,0.007442875898827339,0.004782960007002222
513,1456703950467851,0.006312248991755311,0.0058359403685673385,0.005545213769023801
514,1456703950482837,0.00749968658932774,0.003923497688463385,0.006968738372274268
515,1456703950504854,0.008713329283992625,0.0022147866317831643,0.008646991411733852
516,1456703950527833,0.009766651605035651,0.0013314143681168302,0.010071219351713553
517,1456703950542852,0.01054196962830365,0.0018916593033792425,0.01083550901649899
518,1456703950564575,0.011015790779885742,0.004358156025126597,0.010832392294762254
519,1456703950587861,0.011250450449651426,0.008874044620981271,0.010346150741016176
520,1456703950602865,0.011377383077324287,0.015141315076458769,0.009984035905987336
521,1456703950624897,0.01159567169410982,0.02241618346916862,0.010453398486062472
522,1456703950647595,0.01217693891993721,0.029673194651147358,0.012255618169012546
523,1456703950662596,0.013436045325953482,0.03590636139945102,0.015405725114754769
524,1456703950684897,0.015632205537490042,0.04043598417977377,0.019303876340483615
525,1456703950707863,0.018809620158923474,0.04306259039886908,0.022865938089239445
526,1456703950722861,0.022648019915643663,0.04399733745350849,0.024922223343971178
527,1456703950744609,0.026436804559806005,0.043636965254946286,0.024725659796111247
528,1456703950767618,0.02926066668300889,0.042335015399024935,0.02229755776152144
529,1456703950784619,0.03035947823015716,0.04029866396864982,0.01841353918676611
530,1456703950804620,0.02946998670488871,0.037637112285548675,0.014256201758355014
531,1456703950834604,0.026927532876359073,0.03448258325502711,0.01094323488671571
532,1456703950844889,0.023470483213402588,0.03108025953520822,0.00915316347157251
533,1456703950863897,0.019901053888470688,0.02779812557250446,0.008966288239862195
534,1456703950887899,0.01680992403417702,0.02506171180220035,0.009928365839367775
535,1456703950903898,0.014461497803562411,0.023230979590520263,0.011277489270004546
536,1456703950924900,0.012821104675719489,0.022447449334704706,0.012242606739246467
537,1456703950946913,0.011672163115606227,0.02251769819175032,0.012312223844220187
538,1456703950963923,0.010770339114203017,0.022922593427897976,0.01138420772863867
539,1456703950985925,0.009968374249663105,0.022992813007526345,0.009750865025097756
540,1456703951007924,0.009252417043811774,0.022180164747087523,0.007940249827292852
541,1456703951023925,0.008685114887269346,0.020273751582053547,0.006489777366169072
542,1456703951044437,0.008310841417048782,0.017444470050651768,0.00574382376043239
543,1456703951066947,0.00809112322646994,0.014120820447603445,0.005748957040787365
544,1456703951083946,0.007904384725451373,0.010794130394136932,0.006283109289910202
545,1456703951104948,0.0076001591012907835,0.007860273310936023,0.007001693767468964
546,1456703951127949,0.007071924427040701,0.005552365095032064,0.007626049190315116
547,1456703951144491,0.0063114885572835835,0.00395566962310585,0.008071054390416995
548,1456703951163974,0.005421736045424506,0.0030570763368961327,0.008441233366634859
549,1456703951186970,0.004581468429640098,0.0027823095383505696,0.008908879597868962
550,1456703951203971,0.003974315149342218,0.003004580430094667,0.00956471873488261
551,1456703951223977,0.0037119911693462605,0.003539732255914913,0.010341197665034716
552,1456703951246988,0.0037885939078994256,0.004155013422846552,0.011046940904937786
553,1456703951269003,0.004088017706787957,0.004611294918089241,0.011471566753275
554,1456703951284194,0.004438219451967573,0.004737031638568927,0.01148238258912637
555,1456703951307192,0.004681334191560494,0.004503751985692163,0.011058518209827903
556,1456703951324003,0.004722983149362276,0.004055699672370153,0.010265759566981829
557,1456703951344741,0.0045424682954337695,0.0036610358010501203,0.009215347501035745
558,1456703951367029,0.004174670647441575,0.0035969550721760813,0.008040840830581607
559,1456703951384024,0.0036894848984646306,0.00402495558024016,0.006887741109806213
560,1456703951405361,0.0031837646949210894,0.004920180309200333,0.005890202022460374
561,1456703951427329,0.0027783071543186722,0.006084178273602131,0.005129778907587645
562,1456703951443539,0.0026018422442160953,0.007221897564353801,0.0046031358216653585
563,1456703951464049,0.002754044548005681,0.008037626979878315,0.004229311131186724
564,1456703951488048,0.0032593617377054073,0.008314296070335197,0.0039014272110073005
565,1456703951509330,0.004037030669008461,0.007967091215584213,0.0035613256329276315
566,1456703951524336,0.0049117431212836755,0.0070761156340355055,0.003265749852798793
567,1456703951547065,0.005671377175721207,0.0058954811305142974,0.003214478590957048
568,1456703951569073,0.006147565564317322,0.004825532416469291,0.0037192958367933946
569,1456703951584293,0.0062746429202473215,0.0043382706602367515,0.005111527992508618
570,1456703951607306,0.006099907759601467,0.004862627253751328,0.007612108558890045
571,1456703951629288,0.0057624837759705705,0.006655588945352146,0.011207014401826445
572,1456703951644830,0.005478689083106267,0.009698139239926172,0.01557340136875104
573,1456703951667106,0.005539527573841311,0.013654849612525322,0.020093258724099453
574,1456703951698107,0.006277066653950467,0.0179196810936116,0.023976271564383523
575,1456703951704388,0.007955356582080636,0.02174380442077706,0.026486268739114166
576,1456703951727438,0.010605101483458234,0.024418962002621444,0.02722395259026322
577,1456703951743628,0.01389577792908991,0.025480867182314813,0.026372413011975637
578,1456703951766138,0.017155086834742858,0.0248903180851537,0.024781179554434218
579,1456703951787474,0.019582031183029126,0.0231335312224579,0.023782552875370278
580,1456703951809427,0.02059004672195714,0.021174062760737036,0.024732015051908987
581,1456703951832853,0.020124211637291847,0.020221242496294322,0.028422028839303098
582,1456703951847156,0.018784674132963124,0.02136041224865004,0.03463842008765684
583,1456703951869165,0.017671449115553926,0.025166300295608603,0.04209819911526496
584,1456703951886399,0.017988013134809785,0.031434112334734685,0.04881661122518813
585,1456703951907427,0.020536595327664366,0.039126565336661555,0.052742250499977765
586,1456703951930168,0.025292609645794443,0.04659194111887166,0.052429513701980734
587,1456703951946180,0.031259939652983036,0.0520375806388077,0.04756443319507691
588,1456703951967190,0.03674394775772316,0.05412283754373739,0.03918927714541875
589,1456703951989196,0.040003905577331154,0.052444940032351325,0.029486436996560304
590,1456703952006191,0.04001994498913354,0.04771820647461527,0.02110811095201084
591,1456703952027490,0.03698268272867842,0.04156268137560729,0.01626761010925354
592,1456703952050218,0.03222137361286203,0.03595421429173048,0.0159601989214217
593,1456703952066212,0.02759477220645003,0.032525773454553375,0.01963309504437419
594,1456703952087569,0.024662570341985546,0.032004532385332594,0.025430108557320533
595,1456703952111226,0.024041225702123862,0.034022212212871494,0.030908809031596682
596,1456703952126215,0.02522206142834117,0.037340292246936,0.03393858211772306
597,1456703952147227,0.02690231819511243,0.040337031115216145,0.033406739394549585
598,1456703952170237,0.02764749145068285,0.04154657782791194,0.029455004172397218
599,1456703952186467,0.026552027065035445,0.04009067506557197,0.02321095925506379
600,1456703952207449,0.023582503027436755,0.03589672801038242,0.016220388588496584
601,1456703952229238,0.019477498994064958,0.029643336050639305,0.009878100942702424
602,1456703952254466,0.015321667004608195,0.022467259742705054,0.00507418552598322
603,1456703952267474,0.012054084727197309,0.015572737666916229,0.0021176746824283065
604,1456703952290734,0.010145728452822488,0.009907954267473424,0.0008739262443174971
605,1456703952306739,0.009539641395353925,0.005998040719881353,0.0009920311795081653
606,1456703952327740,0.00980043009700736,0.00393369938097341,0.00209819630775501
607,1456703952349490,0.010350875919683873,0.0034693562303768064,0.003879252709868711
608,1456703952366493,0.010689189315833186,0.004170808306234778,0.00605792208483595
609,1456703952387833,0.010527935788764034,0.00555215292896937,0.008330130099973307
610,1456703952410760,0.009832074777206979,0.00716375677259859,0.010351893843597953
611,1456703952426494,0.008762912303945002,0.008630833251954155,0.011814670908306435
612,1456703952447507,0.007568244610236198,0.009670130333689549,0.012567332965692533
613,1456703952470516,0.006476522518844921,0.01011537806281231,0.012693535551495492
614,1456703952486516,0.005634934933478767,0.009957768817036836,0.012476382301831623
615,1456703952507834,0.005096135622517895,0.009366680647511021,0.012256868707068274
616,1456703952531519,0.004836712742516482,0.008638963859025827,0.012256826117893787
617,1456703952545528,0.004787984394649975,0.008068394959293042,0.012453314369077477
618,1456703952567538,0.004864907600182128,0.0077993238771315206,0.01257023719828246
619,1456703952590868,0.004986376546980548,0.0077550272382910885,0.012211687439579838
620,1456703952606540,0.005087904527253046,0.007684896003323312,0.011098992843732926
621,1456703952627832,0.005130427217260887,0.00730483259801635,0.009305121239044374
622,1456703952649560,0.005106556614894522,0.0064693011588948645,0.007357340439880932
623,1456703952666561,0.00504343320975578,0.005314335083893722,0.006135969453490698
624,1456703952689562,0.005000709263217431,0.00431772290530193,0.006598676468761789
625,1456703952710820,0.005061566958086668,0.004228249818332159,0.00943478673370335
626,1456703952726564,0.005315622091063769,0.005845032435475816,0.014768256149662276
627,1456703952749581,0.005838032821975747,0.009691786814726584,0.022001506174576677
628,1456703952770582,0.006676148413739731,0.015699672813637357,0.029857599690006387
629,1456703952786583,0.007851177229851701,0.02304251182099969,0.03664178995738691
630,1456703952809585,0.009362543309481018,0.0302345771303786,0.04068751817025022
631,1456703952830587,0.011169976422615763,0.03550584134801808,0.040874048436957446
632,1456703952846595,0.013150440117826026,0.03734993989775597,0.037047700459880574
633,1456703952868827,0.01506851960748738,0.035061596264012215,0.030195508598570366
634,1456703952890604,0.016611382768283167,0.029081265182565857,0.022294294230147328
635,1456703952912604,0.017500854871986788,0.021020286513990617,0.0158394476377698
636,1456703952936588,0.01763519499122622,0.013316501115851245,0.01314194426868171
637,1456703952950839,0.017180544503273523,0.008575462937100363,0.015584798914006026
638,1456703952973841,0.016554916564324652,0.00877692915233664,0.023101166285791667
639,1456703952987841,0.01631413168103795,0.0146040408808615,0.03409066849216076
640,1456703953010843,0.017002552002784593,0.0251359838125777,0.04582469980701505
641,1456703953032851,0.019013451239051835,0.038052918233307455,0.055208833931879295
642,1456703953048862,0.022444935165821456,0.05035415232163262,0.0596758826471429
643,1456703953069868,0.026950416993615403,0.059378862625610436,0.05797572242424735
644,1456703953092862,0.03169163694312583,0.06371079842171705,0.05063536451117831
645,1456703953108863,0.03555041802641034,0.06353231775384233,0.03988503932403922
646,1456703953129867,0.03759948643937083,0.06027336359715689,0.02898023145263721
647,1456703953151890,0.037578709163949224,0.05579701766394117,0.02111275022830117
648,1456703953168884,0.036044283422289915,0.051579657229733684,0.018328927049157586
649,1456703953190885,0.034068894971702866,0.048281896989548025,0.020877694588492455
650,1456703953219889,0.032678154660078264,0.045858169637971666,0.027207818574763655
651,1456703953228889,0.03234932994840337,0.04403279689884319,0.03457874076907001
652,1456703953249948,0.03282429393734744,0.042735244085497816,0.04004935513964042
653,1456703953271906,0.033314569217675,0.042139722018845006,0.04148414185692961
654,1456703953288907,0.03298097669439764,0.042312366507580516,0.03820303726251714
655,1456703953310168,0.031412347364679113,0.042833147108762654,0.03104697695127016
656,1456703953332129,0.02881784376358532,0.042782428907260375,0.021891328092893
657,1456703953349145,0.025830833597228153,0.04115108206857528,0.01287467965012788
658,1456703953370147,0.023077103580216436,0.03738075216648162,0.00569212486908202
659,1456703953392409,0.020802129730159935,0.03167101725817906,0.001205041497727733
660,1456703953409147,0.01878871581466718,0.02489120530178751,-0.0005751053983089254
661,1456703953430150,0.016583069544659552,0.018192117627711283,-0.00024072057156497665
662,1456703953452585,0.013844033349843904,0.01255958888033844,0.001346656578796812
663,1456703953468733,0.010580752141052023,0.008535818942604793,0.0033474490271348314
664,1456703953489729,0.007159666229686388,0.0061906787616680635,0.0051361330316995
665,1456703953512607,0.00412455871339111,0.005265612271683924,0.006390943083312911
666,1456703953528729,0.0019607754993118064,0.005350740431096463,0.007091989845523125
667,1456703953551523,0.0009201751502051303,0.006004948797995749,0.007440270726379271
668,1456703953572524,0.0009588432989275203,0.006814468964651728,0.007725525806785954
669,1456703953588525,0.0017811563955511787,0.007433097725997612,0.008192924434848226
670,1456703953610757,0.002953060395573488,0.007635307498647021,0.00895637700970156
671,1456703953640535,0.004038902945734815,0.007370079126100888,0.009973729822917962
672,1456703953648536,0.004719490776002487,0.00677297262683599,0.011067485188492349
673,1456703953671546,0.004861310879110903,0.006105772466985375,0.01197122761565378
674,1456703953692755,0.004525807803812087,0.005641310304554314,0.012399168548977869
675,1456703953708725,0.003925783114096531,0.005554105569035344,0.012143751770687234
676,1456703953731714,0.0033476104542304688,0.005872286247408185,0.011182272783281393
677,1456703953752775,0.0030627303725216026,0.006498293580486887,0.009734878078657232
678,1456703953768776,0.0032509418989548023,0.007265248378265263,0.008214231982201767
679,1456703953791777,0.003952306568170162,0.007994609568283493,0.007067460185485729
680,1456703953812779,0.00505574318821801,0.00853842548778234,0.006588576976830418
681,1456703953828779,0.00632414291222913,0.008796446549157224,0.0068031694033329464
682,1456703953850715,0.007451761100569742,0.008703790796941575,0.00748015052452127
683,1456703953872750,0.008146860458956691,0.008208749912147466,0.008253423263389483
684,1456703953888721,0.008223621950260348,0.0072826573938550914,0.00878744702059995
685,1456703953918720,0.007675452846101465,0.0059856069606416,0.008911490494148112
686,1456703953931722,0.0067005785782772295,0.0045568786290707325,0.008673609570486103
687,1456703953948231,0.00566334657917292,0.003457169929502428,0.008310599030786792
688,1456703953970740,0.004993112491442889,0.0032999150122981964,0.008166657858851113
689,1456703953991748,0.005046177560765309,0.004661734512925677,0.00860117936154776
690,1456703954007743,0.005983238760801692,0.007825500776254055,0.009909608161670955
691,1456703954030757,0.007723154654531508,0.012563399300776719,0.012258321362811459
692,1456703954053762,0.010000141639618133,0.018089482534560764,0.01561896256366185
693,1456703954067816,0.01248787320024847,0.023262387724772824,0.019695168380630866
694,1456703954090765,0.01490830271982524,0.026989398300050142,0.023877627136841845
695,1456703954112771,0.01705816089855915,0.028644785579644956,0.027313608055671585
696,1456703954128765,0.018756254421654902,0.028281457729018196,0.02915878224334544
697,1456703954151070,0.019784590698787817,0.026528601522404265,0.028953873532500937
698,1456703954172075,0.019906534095863328,0.024253622837244707,0.02692462775077674
699,1456703954195335,0.018980322853153594,0.022198295259956292,0.02399256254418993
700,1456703954211072,0.01709443730676916,0.020793022448410334,0.02144491573737748
701,1456703954232134,0.01461702855617788,0.020212910637413654,0.020419141321940386
702,1456703954255130,0.01211471554529321,0.020561839886849193,0.021458642430493162
703,1456703954271094,0.01019776611875798,0.021990704447757182,0.02434411693491303
704,1456703954292319,0.009392597690851582,0.024632791132585645,0.02824880215977497
705,1456703954315289,0.010092603054594048,0.028402245059223015,0.03209461385851751
706,1456703954331347,0.012541712623571451,0.03282082511423926,0.03489620504565753
707,1456703954360455,0.01675608002868447,0.03703673044795768,0.035944583235739014
708,1456703954375161,0.022357023288977682,0.04008888938479677,0.03486102061458936
709,1456703954391140,0.02842938636986946,0.04130829406983849,0.031658838375762215
710,1456703954412422,0.03359237382384763,0.04062346657299888,0.026852292455531456
711,1456703954435476,0.036378817929341827,0.03856436402404161,0.021478306468984118
712,1456703954450987,0.03581235031344306,0.035959233115252814,0.016883948192064426
713,1456703954473987,0.0319009578609039,0.033529139720924216,0.014302505371497194
714,1456703954495251,0.025769472823542035,0.03161999957094105,0.014402685188154555
715,1456703954510989,0.01934070442607531,0.03017782760549366,0.017012335019430416
716,1456703954531996,0.01469771951046897,0.02891545086766892,0.021129447726032986
717,1456703954555041,0.013370330211989464,0.027538148430240706,0.025230877701939557
718,1456703954571037,0.015785753317025395,0.02589848835832928,0.027796391404564663
719,1456703954594004,0.021077492416533516,0.024014446935311327,0.02786884283289689
720,1456703954615005,0.027359349640521013,0.02198220571274028,0.025408255322108934
721,1456703954631200,0.03240478724680711,0.019888664021351858,0.021252579473943916
722,1456703954654226,0.03447048472476322,0.017812667264414574,0.016692220673162946
723,1456703954675509,0.032904633819543526,0.015905735757263378,0.012886201064328355
724,1456703954691504,0.02828432867978105,0.014456478553714694,0.010428856212180522
725,1456703954714231,0.022072964312341417,0.013845848909328001,0.009255989281874582
726,1456703954735786,0.016006194762503933,0.014383566162870075,0.008860463368836485
727,1456703954751542,0.011484327717286903,0.016110069695007233,0.008634758543495156
728,1456703954774542,0.009182959637844908,0.018681758103541786,0.008155182814270025
729,1456703954795791,0.008970776715154222,0.021412403169875215,0.0073180309716743335
730,1456703954811544,0.010103373048837367,0.023469412733926002,0.0063268124148683266
731,1456703954834303,0.011573826055692163,0.024163917163637087,0.0055670974876905355
732,1456703954855546,0.012469333997192933,0.02322436394814443,0.0054203223062998405
733,1456703954871215,0.012221009608235587,0.020918808367441602,0.006085585046421925
734,1456703954894181,0.010707883113238097,0.01794632945325287,0.007483478219927977
735,1456703954915487,0.008228152915717489,0.015146155774698983,0.009284776328470482
736,1456703954931184,0.005365151916878037,0.013172324113945248,0.011044402472205745
737,1456703954954222,0.002785756567308324,0.01227747447405997,0.01236442889231248
738,1456703954975223,0.0010311207881728056,0.012274152364090315,0.013001949236731003
739,1456703954991485,0.0003674869564352099,0.0126649372011868,0.012887771927416117
740,1456703955014227,0.0007388902297014374,0.012878539946496648,0.012087444411187243
741,1456703955035748,0.0018215691073327433,0.01251227823730444,0.010758509405076338
742,1456703955051029,0.003148665337937224,0.011475647381731312,0.009124292287577886
743,1456703955074030,0.004260042556770405,0.009979903839108264,0.0074425697572362325
744,1456703955095292,0.004830416752577855,0.008404987836070197,0.00594782998384792
745,1456703955111030,0.004740317548180937,0.0071299587885594266,0.004782203581623887
746,1456703955134678,0.004079962409499215,0.006399887594495654,0.00395498181178255
747,1456703955155559,0.0031023865664977297,0.006259316507585167,0.003359113252446484
748,1456703955171503,0.0021515090237111756,0.006559404767023561,0.002842634517692374
749,1456703955194534,0.0015834767518218698,0.007038095006720571,0.0023067373843098605
750,1456703955215308,0.0016895230221327599,0.007450521249986268,0.0017873440765365405
751,1456703955231507,0.002625462391838815,0.007694595711974372,0.0014783984178333607
752,1456703955253713,0.0043578135378172025,0.007868628723082166,0.0016772900893236226
753,1456703955275713,0.006643377741211999,0.008230074442141185,0.002666945840683149
754,1456703955291714,0.009058597894233791,0.00907348881606799,0.004577258359752797
755,1456703955314717,0.011084914375318005,0.01057750295565985,0.007280166398570578
756,1456703955335736,0.012241489003931912,0.012677227222573386,0.010365516277112307
757,1456703955351245,0.012236639175377977,0.015013976460017958,0.013219818617018583
758,1456703955373284,0.011086978607356631,0.017002381508811684,0.015194310450514685
759,1456703955395614,0.009152806547881373,0.018023117903186715,0.01581474019376951
760,1456703955411248,0.0070772775965507635,0.017693483994886784,0.014962807221840223
761,1456703955433250,0.005663009909323353,0.016108160114359418,0.012955108693831496
762,1456703955455772,0.005719900537030121,0.013917758821122237,0.010472489636165656
763,1456703955470739,0.007876189941807301,0.012161849597034063,0.0083584798061596
764,1456703955492558,0.01233472574267913,0.011894912863013888,0.007378847194626363
765,1456703955515703,0.01863029626820472,0.013771356432689385,0.00805248554413637
766,1456703955537547,0.02554777606687128,0.01779950772688531,0.01059987061988487
767,1456703955552791,0.03137073120935129,0.023396379422778155,0.01495911288424874
768,1456703955575790,0.03447352892542677,0.029710371975085265,0.020780176897938284
769,1456703955597792,0.03401539806529915,0.03601537528485639,0.027372518402243837
770,1456703955612792,0.03034580360473157,0.04193169934068047,0.033695796289370465
771,1456703955637607,0.024865160552987424,0.04735764575081922,0.03852239932107675
772,1456703955656912,0.019430002613522155,0.0522062351925355,0.04079527486947411
773,1456703955672907,0.01565224707577225,0.05615746240340311,0.04003269991802361
774,1456703955695909,0.01442247012832462,0.058592646641649704,0.036550748751709626
775,1456703955717125,0.015774153581667644,0.05875214992200835,0.03136450996958899
776,1456703955732912,0.019013244793155096,0.0560425889696428,0.025818566731309434
777,1456703955756733,0.02298217521214838,0.05035262228396095,0.021134277532958955
778,1456703955777734,0.0263769988097766,0.04222198984144785,0.018058567554973964
779,1456703955792735,0.028085739916110315,0.03275753543092679,0.016707452543963264
780,1456703955815737,0.027493746412090788,0.02331838555275491,0.016619276347288634
781,1456703955837700,0.024645635593270668,0.015137748588632777,0.016987758539855718
782,1456703955860042,0.020174695298589642,0.009071943353597626,0.016993041203356166
783,1456703955876036,0.015037595541278283,0.005537472452553082,0.016100973847619812
784,1456703955897039,0.010203431249402336,0.004559929305903476,0.014214408298730328
785,1456703955913040,0.006429209713096265,0.005839541049567721,0.0116412656666183
786,1456703955936656,0.004154480506912295,0.008802404881702516,0.008929556049192133
787,1456703955957345,0.003481077219108744,0.012658632782743809,0.006655611247930402
788,1456703955973345,0.004203384716182837,0.016496934184597786,0.005241747791648499
789,1456703955996347,0.005878312917797797,0.019431430676162324,0.004852941391505543
790,1456703956017355,0.007935050050197527,0.02079279212348671,0.005392936438033372
791,1456703956033349,0.009811827491885737,0.02031566962077673,0.006586297695537664
792,1456703956056173,0.011081053500220513,0.018235972935640693,0.008098879975545432
793,1456703956077475,0.011517079570703914,0.015225820511559804,0.009635873276641638
794,1456703956093176,0.011093641636971387,0.01217610104779209,0.010980081154052206
795,1456703956116176,0.009942092596171598,0.009921891842382933,0.011977940119374473
796,1456703956139469,0.00830682636400066,0.00902191439658182,0.012510104400753758
797,1456703956153477,0.006500764489999297,0.009651511797800275,0.012480571847249293
798,1456703956176648,0.004844184662930949,0.011603438341463318,0.01183885161913284
799,1456703956196479,0.0035916013980046985,0.014357875517178417,0.010627377785779775
800,1456703956212606,0.0028785702931906046,0.01719498748976679,0.009021514150945749
801,1456703956236223,0.002713597312142462,0.019351713658153386,0.007318944691197794
802,1456703956256741,0.0030091650051691393,0.020219534065630762,0.0058639264614856355
803,1456703956272734,0.003625108359749256,0.01953229715134572,0.004940412851286107
804,1456703956296737,0.004402986212788994,0.017459215621308533,0.004685419420175643
805,1456703956317736,0.005190310581497402,0.014546848622035449,0.005050513083951385
806,1456703956332738,0.0058657762119466595,0.011523018450843433,0.005812106672501863
807,1456703956355674,0.006367543618410939,0.00903687498165189,0.006622863116555238
808,1456703956377544,0.0067077466608813875,0.007442098190740532,0.0070974779059824545
809,1456703956392713,0.006953799319938534,0.006719991717984926,0.0069241653234937625
810,1456703956416545,0.007178944586567803,0.0065727205149125854,0.005983587294386581
811,1456703956437629,0.007409766584379745,0.006624377451623202,0.004440672742882943
812,1456703956452847,0.007603826495477444,0.00661527612091901,0.00276376092899454
813,1456703956475850,0.007675299025748464,0.006498800938589358,0.001635009423541656
814,1456703956498850,0.007561734461165784,0.006420788621601173,0.0017492906532227148
815,1456703956512851,0.007298718849423082,0.006620725983937623,0.0035471644836674843
816,1456703956536361,0.0070529563253550545,0.0073118507092432795,0.006975355820112145
817,1456703956558870,0.007076456432761275,0.008582834005320334,0.011391161738992293
818,1456703956579870,0.00758848506426713,0.010340735957167987,0.015697291890029406
819,1456703956595871,0.008640792224413014,0.012302117212956163,0.018700806274483447
820,1456703956618872,0.010038915451305187,0.014039563650179226,0.01956781067869786
821,1456703956632873,0.01136920969726032,0.015087429512799613,0.018169812814560257
822,1456703956656185,0.012136854422672818,0.015088448238551093,0.015152686574998353
823,1456703956679186,0.01196879716620148,0.013933178962370965,0.011694044840865307
824,1456703956693187,0.010789150724152671,0.011830486573643556,0.009063404367851873
825,1456703956716188,0.00886966685544788,0.009263401444181566,0.00817395453520321
826,1456703956739483,0.006722374810332765,0.00683277871142791,0.009291135296860544
827,1456703956760326,0.00489426119766429,0.005051165477944424,0.011980126157238003
828,1456703956775992,0.0037690618848884617,0.0041791373695235015,0.01528599270514966
829,1456703956798997,0.0034567079489545025,0.004172836348045531,0.018077423058557765
830,1456703956820358,0.0037957809984042867,0.004754883677119032,0.019446656548904016
831,1456703956836662,0.004447496105510568,0.0055651118518842075,0.019034081315752308
832,1456703956859014,0.0050333639339993855,0.006314763427523108,0.01715000732719954
833,1456703956880014,0.005263473046817497,0.0068731269653837775,0.014629685025204009
834,1456703956896015,0.005016083401677322,0.007259082317259507,0.0124754631703245
835,1456703956919016,0.0043533234135568035,0.007563526018165618,0.011447299180462289
836,1456703956940536,0.0034801441429732224,0.00785704885750963,0.01178650529278621
837,1456703956956046,0.0026672154825635747,0.008130849046006396,0.013180591017392449
838,1456703956979048,0.002163172784586247,0.008293391171226717,0.014951467908615883
839,1456703957000316,0.002120371497221305,0.008218468722953017,0.016353431863551322
840,1456703957016276,0.002553502914707524,0.007819127349179802,0.01684461291357447
841,1456703957039533,0.003341932924231032,0.007109153962231655,0.016233296631674908
842,1456703957060581,0.004272689167632156,0.006216507337506932,0.014665001583050731
843,1456703957076527,0.005106044343932632,0.0053367984712297135,0.012485846434318968
844,1456703957106284,0.005640840689207649,0.00465019235729252,0.010071892604335974
845,1456703957120621,0.005764473998921119,0.00424829040701407,0.007719582220058141
846,1456703957136286,0.005480222925936245,0.00411180370736206,0.005635670561680956
847,1456703957159309,0.004904315715352303,0.004149380233425462,0.003988114345202144
848,1456703957180325,0.004226565002398969,0.00427109824914312,0.0029458976211466877
849,1456703957196313,0.0036423505524888745,0.0044472676555287844,0.0026629092195568317
850,1456703957219312,0.003282240340165522,0.004710397727906857,0.0032113176366178595
851,1456703957240699,0.003169927231816879,0.005096327814831423,0.004502950082894081
852,1456703957256137,0.003223586065831532,0.005565682720643955,0.00624449161147751
853,1456703957278137,0.003293623617127526,0.005964582521466628,0.007964138618177907
854,1456703957300180,0.003216905789765221,0.006058843235099435,0.009124375660785724
855,1456703957316174,0.002867845738261932,0.005627181531475031,0.009292535741643362
856,1456703957338356,0.002194433849496818,0.004562889726969404,0.008297371222447706
857,1456703957360395,0.0012339525622795432,0.0029331636590440922,0.006297146787427389
858,1456703957376580,0.00010454264096373484,0.0009724979135967874,0.0037331663257088457
