,timestamp,roll,pitch,yaw
0,1456703940183118,0.0008102768655894316,2.9213472939492056e-05,0.00020643911987266883
1,1456703940199117,0.001055183201334374,7.609167023022282e-05,0.00029616531732205024
2,1456703940221663,0.0012465000069810045,0.00011814400379694531,0.0003813913301568871
3,1456703940245138,0.001348057128690986,0.0001512670922457845,0.00046016052829040007
4,1456703940260138,0.0013523758802693913,0.00017327774797007664,0.0005339031989171298
5,1456703940281140,0.0012793204981016296,0.00018439880515888713,0.0006059520818369088
6,1456703940306173,0.0011639190437105647,0.00018721069441904195,0.0006782833040284104
7,1456703940359613,0.0010391218897024762,0.00018633809167215525,0.0007478688729421337
8,1456703940360368,0.0009219221969389673,0.000188312266329675,0.0008045857156848291
9,1456703940368561,0.0008099717042254396,0.00020165425604082838,0.0008326184347329516
10,1456703940383399,0.0006907161276953999,0.0002364448848384124,0.0008161734773355503
11,1456703940402364,0.0005581729159750691,0.0003023083957971665,0.0007479631465349542
12,1456703940425885,0.00042744700230928044,0.00040460255426986525,0.0006366201399754669
13,1456703940440425,0.0003376189644511861,0.0005404261490837452,0.000508901922276008
14,1456703940486604,0.0003401646976353384,0.0006973224093367676,0.00040481384291644033
15,1456703940489394,0.00047846314564206096,0.0008566705602824859,0.00036725024634947983
16,1456703940506463,0.0007687607431308841,0.0010007811086138305,0.00043035177460084515
17,1456703940522135,0.0011916413004118781,0.0011197535190616485,0.0006110476255051638
18,1456703940544407,0.001697160965874379,0.0012136473491119576,0.0009060530480140437
19,1456703940566408,0.002220174577210652,0.0012881128559777298,0.0012933936935245298
20,1456703940582411,0.0026984402179336597,0.001345682255649282,0.001735639000605602
21,1456703940604653,0.003086118240256103,0.001377889103220656,0.002182755980332369
22,1456703940626917,0.00335830690623061,0.001363707772095158,0.0025751011765479466
23,1456703940641459,0.003506485969345164,0.0012774469332019688,0.0028495773936489627
24,1456703940664664,0.003528894877233817,0.001104913193297676,0.002952476511761716
25,1456703940687636,0.003422875243724067,0.0008617074925199369,0.002859750642820848
26,1456703940701427,0.003186242251743608,0.0006042932222685168,0.0025995661346505067
27,1456703940724958,0.002830143688184773,0.00042553451194427417,0.002265702450084912
28,1456703940746958,0.002397526454154232,0.0004322380207227739,0.002008458406477712
29,1456703940762155,0.001973911464827185,0.0007101672735888323,0.0019962122446822448
30,1456703940784124,0.00167699144681705,0.0012880290876821005,0.002355087411587345
31,1456703940807128,0.001621682894155386,0.0021137001857208402,0.003109282496241997
32,1456703940821906,0.0018731679449489073,0.0030534666180036655,0.004150131236877179
33,1456703940843190,0.002411423848916938,0.00391898464938269,0.005252301908607307
34,1456703940867190,0.0031278758808673387,0.004517786730339903,0.006135745585510434
35,1456703940881200,0.0038587035807792535,0.004713715270955135,0.006553258022146246
36,1456703940903193,0.004439690475453037,0.004477807263601679,0.006373846145237806
37,1456703940926705,0.004756507219598996,0.003911103875064595,0.005633084665024158
38,1456703940941205,0.004769210519534683,0.0032282548941001948,0.0045316088134803485
39,1456703940963206,0.004507245459097334,0.002701865778925916,0.0033790908851214886
40,1456703940986207,0.004047990529938702,0.0025801520630180006,0.0024994659745897177
41,1456703941002209,0.00349510490230406,0.0030025639007536177,0.0021283031799636835
42,1456703941023959,0.002962705145944219,0.003944184614724723,0.00233879248549478
43,1456703941046220,0.002559764742081583,0.00521270854786355,0.003023937893982671
44,1456703941061220,0.002367259789577683,0.006501572230527331,0.003940354711761613
45,1456703941083221,0.002409483210165945,0.007480572997734933,0.0047938515588150385
46,1456703941106222,0.0026330266080115262,0.007894296351270907,0.005332596081377576
47,1456703941122729,0.0029121932809643876,0.007641507626383405,0.0054162978908789275
48,1456703941143235,0.0030914623659762906,0.006816949638111026,0.0050438532210997705
49,1456703941166236,0.0030559468032125884,0.005702791642726095,0.00433721679814509
50,1456703941182237,0.002800647093523228,0.004702211845973576,0.0034906030346750785
51,1456703941203238,0.0024620110489324337,0.004220820154167427,0.002702193066415044
52,1456703941226745,0.00228726329204396,0.004525413070869173,0.002111258887773523
53,1456703941242251,0.002544199071569633,0.005631861834592065,0.0017634779891928568
54,1456703941263252,0.003404631198802047,0.007274807262882811,0.0016162952962740127
55,1456703941286254,0.004852889955199822,0.008982194398485424,0.0015767928181444919
56,1456703941302254,0.006664599250806042,0.010231242982323252,0.0015489264365203647
57,1456703941323762,0.008470221829254262,0.010625844777458053,0.0014670249329445245
58,1456703941346268,0.009877328508262137,0.010027208791345802,0.0013065306582800559
59,1456703941362269,0.010597355212313487,0.008590680136893188,0.0010777344960503758
60,1456703941383269,0.010522765196165927,0.006700124573207648,0.0008133006315713992
61,1456703941406472,0.009728807201725769,0.004830561891983845,0.0005568990067619064
62,1456703941423067,0.008414087608693685,0.0033946860864599642,0.00035492971128274194
63,1456703941443380,0.006822549043175734,0.002630429850974266,0.0002496338420698088
64,1456703941466186,0.00518866993141138,0.002564622001837669,0.0002706013172797573
65,1456703941482182,0.0037193281052213946,0.0030521452552833817,0.0004238878264594746
66,1456703941503183,0.0025937780342895865,0.003858969128435583,0.0006828780192711406
67,1456703941526934,0.001954701526041842,0.004746653757826055,0.0009882625641128252
68,1456703941542397,0.0018813528943096654,0.005527056491381637,0.0012618873849176877
69,1456703941565400,0.002359148021649672,0.006078043143945384,0.0014315340275328021
70,1456703941586737,0.0032689576908289768,0.0063311056260679024,0.001456255137148248
71,1456703941602402,0.004410883096408642,0.006251768872882242,0.0013402883597068284
72,1456703941624002,0.005558659594125218,0.005831127460149479,0.0011291514400923613
73,1456703941646024,0.006522459027628383,0.005094840966326027,0.0008905018224494722
74,1456703941663025,0.007191229461028914,0.004121330553938119,0.0006890589012829318
75,1456703941684185,0.007536911177267434,0.0030515746893000303,0.0005660999022644582
76,1456703941707186,0.0075855483975095835,0.002074578435782387,0.000530473301201249
77,1456703941722552,0.007378562778930949,0.0013855221802405225,0.0005624560419350872
78,1456703941743064,0.006948537261430699,0.001130365242814095,0.0006265812072642413
79,1456703941766063,0.006319536655077129,0.0013602784790550093,0.0006866788244897429
80,1456703941788063,0.005525503869702954,0.0020155568404983865,0.0007170830512261151
81,1456703941803064,0.0046317545060848625,0.0029445391533838273,0.0007075859234713421
82,1456703941827013,0.0037441115833687574,0.00394736577503756,0.0006631933607523602
83,1456703941848474,0.002995388182571458,0.004825912672722867,0.0006004460605351411
84,1456703941863475,0.0025102533620750284,0.005423532925771444,0.0005410277805957107
85,1456703941886753,0.002363683279617394,0.0056474862846749565,0.0005035861394340224
86,1456703941908477,0.0025545813304639876,0.005475422375324383,0.0004964873675668052
87,1456703941923488,0.0030078398747213496,0.0049503601499995996,0.0005149330236686718
88,1456703941946493,0.0036016895763330784,0.0041677471937533045,0.0005437901244851946
89,1456703941968499,0.004205429519569042,0.0032572738389650014,0.0005641071353801933
90,1456703941985496,0.004711377393920022,0.0023622792960535026,0.0005595334638729983
91,1456703942006532,0.0050511583320009225,0.001618903010198793,0.0005202109166800926
92,1456703942028953,0.005195009374319331,0.0011351666829840033,0.0004447009133676107
93,1456703942043901,0.005139939479783179,0.0009701292429520262,0.0003420817054053121
94,1456703942067120,0.004896479830827426,0.001117320836386887,0.00023487373937821525
95,1456703942089091,0.004483531049743924,0.00150114494636899,0.00016028591956287948
96,1456703942105906,0.003935531903760985,0.0019936940023155816,0.00016555509376963768
97,1456703942127003,0.0033164126610975464,0.002451173540978676,0.0002950733896989576
98,1456703942148213,0.002726258438926279,0.0027586449298315427,0.0005717754416213843
99,1456703942165211,0.0022875393022044003,0.0028654004918761897,0.000979877491636389
100,1456703942186481,0.0021097309706757245,0.0027953363417972626,0.0014577535092560412
101,1456703942208500,0.0022459838570388583,0.0026275623161876316,0.0019072256720712698
102,1456703942226137,0.0026629991827300916,0.002456825761822135,0.002219279165484619
103,1456703942246803,0.003240788359245436,0.00235240435584474,0.0023086210349900814
104,1456703942268803,0.0038050353938629124,0.002332963292321524,0.002144270433608729
105,1456703942285803,0.004179702841569345,0.002366074786900274,0.0017634649616891389
106,1456703942306810,0.004240169091068247,0.0023906954003453137,0.001262270447698717
107,1456703942328860,0.003949401922746347,0.0023526130040743432,0.0007660601973462056
108,1456703942345865,0.0033665299943550866,0.0022376371990425544,0.0003915695428610335
109,1456703942366867,0.0026249405709044098,0.0020863045495569553,0.00021471748654981886
110,1456703942388868,0.0018864186108140254,0.001979724779831567,0.0002539411214986085
111,1456703942405870,0.0012882786629199706,0.0019996943218823686,0.00047131628858146314
112,1456703942426820,0.0009055935633471867,0.0021817134741980563,0.0007880916500296963
113,1456703942448586,0.0007437089876519766,0.002486396709335289,0.0011089024794770526
114,1456703942465586,0.0007593217930222077,0.002806531473246898,0.0013481932038907913
115,1456703942486863,0.0008931785187643864,0.003008467534355652,0.0014521998152312234
116,1456703942508802,0.0010949702118017005,0.002988917300927876,0.0014110743589892034
117,1456703942525848,0.0013312611481719567,0.002720247153044574,0.0012586583700371524
118,1456703942546805,0.0015801198565579574,0.0022621394932191155,0.0010604435748704868
119,1456703942569030,0.0018220027331781919,0.001733813501495597,0.0008923094741519217
120,1456703942586030,0.0020343519250000134,0.0012614697098752286,0.0008148578192614103
121,1456703942607059,0.0021922530601094707,0.0009281437277121687,0.0008514155628880379
122,1456703942629215,0.002273701674331533,0.0007495697749659398,0.0009794453327613085
123,1456703942645693,0.002266542990268559,0.0006832934538632471,0.0011411732134684073
124,1456703942674733,0.002174002096027926,0.0006607374562511329,0.0012697525159692422
125,1456703942688667,0.0020161588244694485,0.0006233096911773121,0.0013180627971323235
126,1456703942705928,0.001825772514904141,0.0005463158885126643,0.0012753705060972182
127,1456703942726728,0.0016386906631107694,0.00044384297916571933,0.0011645096138413675
128,1456703942747950,0.0014816440628234412,0.0003572799256210413,0.001023893970605074
129,1456703942772043,0.00136271662235467,0.000335530616325444,0.0008867008090456297
130,1456703942787042,0.001270101970070776,0.000415640874324962,0.0007692901415108036
131,1456703942809038,0.0011814345570500243,0.0006099920615034083,0.0006733243006978043
132,1456703942825932,0.0010804045520333484,0.0009024749886534712,0.0005965389783043034
133,1456703942847103,0.0009728206238856417,0.0012528299423159822,0.0005422106839553156
134,1456703942869043,0.0008933962850382284,0.0016062573598223909,0.0005201709861177391
135,1456703942885894,0.0008979565447273622,0.0019046485925238534,0.000539793512059587
136,1456703942906896,0.0010418346377572914,0.0020967510992864953,0.0006013161206358218
137,1456703942928913,0.001351353992356303,0.0021466550044446867,0.0006919850797928536
138,1456703942945921,0.0017999960592831542,0.00204092443082554,0.0007889601116676817
139,1456703942965927,0.0023024658501705144,0.0017933047278082092,0.0008661924452172227
140,1456703942989027,0.002734823723184921,0.0014442290979661053,0.0009011898110575833
141,1456703943012004,0.0029762988491051578,0.0010530999744973856,0.0008797199290199483
142,1456703943027623,0.002955313145082375,0.0006845538141393756,0.0007990054408255549
143,1456703943048136,0.0026785311774060396,0.0003931197592921396,0.0006699513871354246
144,1456703943071353,0.002230039886237094,0.00021147745932664937,0.0005169592809397121
145,1456703943096172,0.0017416715474955187,0.00014557120207694032,0.00037318386439882354
146,1456703943108336,0.0013472755472468466,0.00017689771179043708,0.00027139696216284953
147,1456703943131931,0.0011395104975382485,0.0002703109577735481,0.0002338867662092491
148,1456703943147728,0.0011458250684180046,0.00038490135607197935,0.0002659163142912429
149,1456703943168735,0.0013307669208494476,0.00048506765748247894,0.0003553937989765675
150,1456703943191736,0.0016191120269089673,0.0005488365457978115,0.0004781736728542306
151,1456703943207731,0.0019261537859470805,0.0005715630279649976,0.0006059302424887074
152,1456703943230742,0.0021819681018536816,0.0005651999924913679,0.0007131121060092335
153,1456703943251970,0.0023431363146761944,0.0005549622022124482,0.0007810362546932486
154,1456703943267756,0.0023928766014117463,0.0005752831398161984,0.0007993946999737966
155,1456703943288986,0.0023348438022220484,0.0006657121635585967,0.0007666212297060267
156,1456703943312147,0.002185702888292132,0.0008659164029963263,0.0006899561502071644
157,1456703943328154,0.0019684204120323135,0.0012081234000908111,0.0005845911579881356
158,1456703943349369,0.0017058820380045547,0.0017057920334641653,0.0004707836757123466
159,1456703943371371,0.0014157231445042137,0.0023396809809211995,0.00036907429497597816
160,1456703943387371,0.0011097551810268153,0.003046506960628916,0.00029545935539109137
161,1456703943408377,0.0007999313379643894,0.0037185329763981083,0.0002586761561720318
162,1456703943431893,0.0005072014741752502,0.00422108537911984,0.00026038589448251423
163,1456703943447401,0.0002658489448949122,0.004427839542100056,0.0002973725239053105
164,1456703943468619,0.00011834241276140959,0.004263827763204156,0.0003640553099644706
165,1456703943491665,0.0001019149073831298,0.0037395999132496622,0.0004537302914843875
166,1456703943509405,0.0002327461915211446,0.002961703188178864,0.0005578383614065863
167,1456703943529414,0.0004945383962671971,0.002114280322549076,0.0006640858484008539
168,1456703943551758,0.0008366360083616757,0.0014183902264927894,0.0007556875687010263
169,1456703943568759,0.0011842163156349302,0.0010831673226310216,0.0008140328329037119
170,1456703943589026,0.0014595310161404662,0.001263513938484413,0.0008250528213218013
171,1456703943611992,0.001608343670788359,0.0020338387991961837,0.0007865081074104683
172,1456703943628055,0.001621229748080715,0.0033791143574355524,0.0007114965023922088
173,1456703943650124,0.0015389767875535537,0.005197127939227617,0.0006246355985397992
174,1456703943671018,0.0014371038906005526,0.007304219038976024,0.0005516566319595197
175,1456703943687019,0.0013943403498505814,0.009443478953136358,0.0005079544063030547
176,1456703943709045,0.0014585213560086175,0.011304952153917842,0.0004932971319003937
177,1456703943731560,0.001625885073665141,0.012571722532164945,0.0004968036171780448
178,1456703943747030,0.0018444249458961504,0.012995876889095011,0.0005102579195618425
179,1456703943768037,0.002040898608915238,0.012486596421840473,0.0005423699057779923
180,1456703943792050,0.0021593108111787286,0.011172540283702515,0.0006246525299792445
181,1456703943809050,0.0021923456800247544,0.009398553963076369,0.000802667004891962
182,1456703943829254,0.0021905716783361348,0.00764047636217193,0.0011138591876575063
183,1456703943851599,0.0022455464243444803,0.006363349026057879,0.0015614513025833132
184,1456703943874264,0.0024548563572154973,0.005883569505279517,0.002097621647735514
185,1456703943888552,0.002882720323598296,0.006296954687116101,0.0026257952204352844
186,1456703943911602,0.0035281496127704142,0.007495082625161384,0.0030236004247416333
187,1456703943934079,0.004309191778191071,0.009238755204839477,0.0031796826571937986
188,1456703943949294,0.005071610324625198,0.011231863431172181,0.003032068674842304
189,1456703943971337,0.005629056275449807,0.013159034120209353,0.0025938966373811713
190,1456703943988321,0.005828765585999604,0.014694209979853861,0.001955132119794788
191,1456703944010298,0.005614682021855178,0.015516339527847683,0.0012575937573999704
192,1456703944031819,0.005051064444474793,0.015361500292365205,0.0006527319703789654
193,1456703944048326,0.004290147771351549,0.014107208060720154,0.0002598315172977774
194,1456703944070327,0.0035026354519030528,0.011851531088127526,0.00014043005578677319
195,1456703944091368,0.0028106379027665568,0.008940231842562008,0.0002943828559098923
196,1456703944108328,0.002257176127727717,0.005914619027395818,0.0006720401007360971
197,1456703944132377,0.0018228154067458453,0.003388308859861601,0.0011920134747409406
198,1456703944151388,0.001472597723398351,0.0018924281753084848,0.0017563450933254937
199,1456703944168354,0.0012002257939033967,0.001740198734431528,0.002261790161788156
200,1456703944190355,0.0010419538845044295,0.0029502690167912847,0.0026119881530737733
201,1456703944211362,0.0010549138414560424,0.0052441948027114075,0.002735089837554931
202,1456703944228408,0.0012761794503156646,0.008112123260388066,0.0026044148463445337
203,1456703944250636,0.0016871099754566703,0.010928651635882794,0.00225208149645663
204,1456703944271412,0.002202554098066568,0.013093836143117132,0.001764764089295559
205,1456703944293392,0.002691905072014897,0.01416760034287218,0.0012586232824887906
206,1456703944310430,0.003023358593232975,0.01396273243860962,0.0008417737719041434
207,1456703944341409,0.00310992009586459,0.012570192556876178,0.0005798550509513345
208,1456703944353411,0.0029343808612726716,0.010311985110980155,0.0004792969727886187
209,1456703944370411,0.0025441822560229588,0.0076416769402607556,0.000494867428795314
210,1456703944391661,0.0020258091644672687,0.005027523397994864,0.0005571649357022592
211,1456703944413413,0.0014760642154803341,0.0028523237518728005,0.0006066821133414392
212,1456703944430615,0.0009806533986626708,0.0013517961938937437,0.0006182982126283828
213,1456703944451560,0.0006006684827365071,0.0005977171870476706,0.0006054578323887131
214,1456703944473512,0.00036485614907396497,0.0005194949626465356,0.0006041743822566628
215,1456703944490539,0.0002679836704650575,0.000950481095698635,0.0006472460426263892
216,1456703944511651,0.00027655315167630944,0.001682842530480773,0.0007430901832451899
217,1456703944534115,0.0003408139743927687,0.002516533935975335,0.0008696143339855818
218,1456703944549956,0.00040943272382613195,0.003293203882843102,0.0009843987329563224
219,1456703944572064,0.00044294785415448365,0.003912734438747285,0.0010438642844189101
220,1456703944592958,0.000423554581693729,0.004335245660442127,0.0010209617613242026
221,1456703944618090,0.0003595277878217576,0.004572916767971796,0.0009140927205224259
222,1456703944631472,0.0002825372801157062,0.004675063952673849,0.0007459966265153773
223,1456703944654091,0.0002372257101561444,0.00470891566074104,0.0005556774055896109
224,1456703944669987,0.0002653398039293263,0.00473850003021301,0.0003872758634993469
225,1456703944692091,0.00038949733439124737,0.004804834007922248,0.00027872182907007236
226,1456703944713983,0.0006022280477689494,0.004911738817394589,0.00025230917038485985
227,1456703944730510,0.0008640936279235377,0.005022062376292923,0.00030936464097487324
228,1456703944751018,0.0011119460279718524,0.005067226012147333,0.0004306796778336084
229,1456703944774016,0.001275937641132652,0.00496855176576041,0.0005826284589281654
230,1456703944791018,0.0013014516010599337,0.004664180655131844,0.0007267169003226161
231,1456703944812020,0.0011692698851781943,0.00413358317056449,0.0008291487741073825
232,1456703944834035,0.0009058268744758568,0.003413083935080125,0.0008676083303278218
233,1456703944850050,0.0005781038488818263,0.002598274661638868,0.0008343933553144259
234,1456703944872050,0.0002743203392651531,0.0018312085094484415,0.0007369109675365112
235,1456703944894051,7.775629363796795e-05,0.0012730114473385704,0.0005968683272217312
236,1456703944911052,4.279601688545442e-05,0.0010674118736188612,0.00044800974211492786
237,1456703944933407,0.000179848952027187,0.0013058720609189596,0.000330696579208361
238,1456703944954041,0.0004522102681180333,0.002006004305476915,0.0002821534424887369
239,1456703944969921,0.0007852638401106674,0.0031093125448778897,0.0003240104465901272
240,1456703944993079,0.0010866515901481572,0.004495241536260181,0.0004518566983428234
241,1456703945012920,0.0012741348423780097,0.006002687496076318,0.0006325533192465335
242,1456703945038715,0.0013050959841474166,0.007451338548147195,0.0008128129649660297
243,1456703945053507,0.0011983639053697024,0.008660933287764674,0.0009373926874622969
244,1456703945073794,0.001037647669891797,0.009470772623314631,0.0009695691341815853
245,1456703945090508,0.0009497271679002545,0.009761146344621194,0.0009042156809358922
246,1456703945113511,0.0010604977415176466,0.009474469370302224,0.0007671879877927844
247,1456703945133817,0.0014436066152437993,0.008630986576682527,0.000602126294360422
248,1456703945150330,0.0020828914091479164,0.007334210137560354,0.00045230803866103656
249,1456703945174330,0.0028670371228513513,0.005763928039434377,0.00034668845595932395
250,1456703945193548,0.0036233661157470337,0.00415725099566677,0.00029542338104277015
251,1456703945210332,0.00418158814748012,0.0027791848802235113,0.00029422350819755444
252,1456703945238770,0.004443874789327368,0.0018843310463152977,0.00033269719988273375
253,1456703945253561,0.004431055818902473,0.0016730268756468146,0.00040109421122089224
254,1456703945270561,0.004280308355253806,0.0022497695950753002,0.0004919734931073228
255,1456703945293562,0.004188085238695621,0.003595662941472411,0.000596910561321693
256,1456703945317563,0.004318267356347775,0.005564081558671815,0.0007018539857847751
257,1456703945330857,0.004717823696021458,0.007899441650309801,0.000786095365809802
258,1456703945353873,0.005285469476450339,0.010270624639601473,0.0008274848057034572
259,1456703945373875,0.005814708040101863,0.012311111739168538,0.0008115746786344858
260,1456703945391116,0.006091081955523048,0.013666118518218319,0.0007387344139945844
261,1456703945412876,0.005990892437497395,0.014052365152414316,0.0006243291345823741
262,1456703945433818,0.005528844734192063,0.01332835725030025,0.0004920392419178372
263,1456703945450107,0.0048352583265711055,0.011554969524756424,0.0003650611241365688
264,1456703945473108,0.004085608386325626,0.009014321666309475,0.00026053085593722694
265,1456703945493327,0.0034277856722879966,0.006164305499481336,0.00018902925944088258
266,1456703945516326,0.0029433050860814933,0.0035345230048294094,0.00015685931647705067
267,1456703945533995,0.0026486436147000318,0.0015986150119941041,0.00016740390251712868
268,1456703945553640,0.002517427790770459,0.0006682380704351494,0.00021977038680818647
269,1456703945576648,0.0025017813008739146,0.0008397201190795639,0.00030591320029041294
270,1456703945593354,0.002545685170890659,0.0019985758242524933,0.0004091194239096026
271,1456703945613356,0.002594498256060215,0.00386769390764822,0.0005063385897436876
272,1456703945636881,0.002604702511398156,0.0060785157965205375,0.0005749482100174802
273,1456703945653390,0.002553894690994949,0.008245363700213941,0.0006020536300121741
274,1456703945673605,0.0024480399943788253,0.010026604371443204,0.0005920343749570797
275,1456703945696391,0.002319889264454695,0.011163872904279714,0.0005671145302826674
276,1456703945720392,0.002213158248669895,0.011501851472697337,0.000558153218129804
277,1456703945733981,0.002156738360272845,0.01099879232565351,0.0005886375510993509
278,1456703945757191,0.002144362952663869,0.009734366684581636,0.0006604217306745295
279,1456703945773191,0.0021340808801618076,0.007909013867993439,0.0007503059765485835
280,1456703945797194,0.0020683742200208583,0.0058205872220537325,0.0008205666201892658
281,1456703945817194,0.0019031209977268739,0.00381030740370805,0.0008376696512372646
282,1456703945833488,0.001630580023017205,0.0021877686164966615,0.0007881119551936258
283,1456703945855282,0.0012858243686329422,0.0011601814185511746,0.0006828654416584187
284,1456703945876586,0.0009336153982143657,0.0007925792358176108,0.0005499859892602066
285,1456703945893284,0.0006419521937392291,0.0010125506247956738,0.000421587216301791
286,1456703945915286,0.0004554349886921451,0.0016535553152327255,0.00032211542427826296
287,1456703945937079,0.0003811547873230085,0.002516041439126871,0.0002617325192472663
288,1456703945953613,0.0003923683501861853,0.0034224130709680795,0.0002357666428142736
289,1456703945975631,0.0004459703842636179,0.004249606555474061,0.0002295716570422183
290,1456703945996598,0.0005037029174740798,0.004935126946661413,0.00022654995229281444
291,1456703946013599,0.0005464412774395038,0.0054625516445406756,0.0002157788814343503
292,1456703946035665,0.0005756082986306766,0.005837772110634114,0.00019604644995561187
293,1456703946057009,0.0006033136744846116,0.0060672658364113955,0.00017511840591627695
294,1456703946072927,0.0006390146251848382,0.006145745209269767,0.00016515999918473707
295,1456703946094928,0.0006815757034944817,0.00605522041727304,0.0001763914795626451
296,1456703946115935,0.0007208382228733341,0.005773385306099855,0.00021144108137583913
297,1456703946133486,0.0007456404873779977,0.005287143140690639,0.00026272864566982793
298,1456703946154958,0.0007511635476465482,0.004606519595023351,0.00031429016471055146
299,1456703946175959,0.0007404283672125004,0.0037746537668072104,0.00034757510626043473
300,1456703946193979,0.0007202365294281727,0.002870720723553005,0.00034869414916918496
301,1456703946214963,0.0006955613064597563,0.0020040951951800783,0.00031385453898569057
302,1456703946236979,0.0006659465950571372,0.0012997358170902071,0.0002510129506404084
303,1456703946252991,0.0006251900900916685,0.0008771372111966827,0.00017803346647827319
304,1456703946274990,0.0005644557837053449,0.0008281541498297361,0.0001190259152679609
305,1456703946295991,0.00047858055871398473,0.0012007358077707067,0.00010025103969429822
306,1456703946312993,0.000373792800661645,0.0019935604180771,0.000145665603458565
307,1456703946335534,0.00027293912034311957,0.0031604272166183096,0.00027119720389252335
308,1456703946356446,0.00021413566765231466,0.004617059065608974,0.00047745690148083986
309,1456703946373220,0.0002414000501070799,0.006242545784589809,0.0007430874066379286
310,1456703946395221,0.0003897506988466373,0.00787492458358622,0.0010236074980288458
311,1456703946424436,0.0006704196795058432,0.009310516012158114,0.001260319101916453
312,1456703946433704,0.001062616725434776,0.01032140047946249,0.0013988541761688926
313,1456703946455630,0.001515948120686435,0.01069938300608656,0.001409795909164152
314,1456703946476601,0.001963208695569036,0.010319503176257662,0.0013004361350912172
315,1456703946493597,0.002339270479309359,0.009200074500481844,0.0011110035642599965
316,1456703946515634,0.0025997722760676472,0.007529980812505447,0.0008978033602801687
317,1456703946536674,0.002733655796530635,0.005643373697975333,0.0007124673960956804
318,1456703946553669,0.002766475100349347,0.003943886029458281,0.0005866461258488907
319,1456703946575642,0.002755550515702641,0.002803919114987504,0.0005269679054465752
320,1456703946596645,0.0027799084064211027,0.002476064085550037,0.000520172446206932
321,1456703946613680,0.0029253908982626343,0.0030458100082707477,0.0005446935229198753
322,1456703946635944,0.0032617768095938946,0.004432383182810077,0.0005825911802429724
323,1456703946656807,0.0038113690905872376,0.006423011288079853,0.0006257612182200684
324,1456703946673804,0.004519796189090677,0.008718252916519344,0.0006740727104135397
325,1456703946703804,0.005250783471020223,0.010973524656844062,0.0007286869139189594
326,1456703946716836,0.005822144079252994,0.012836431780924572,0.0007867240026749498
327,1456703946733612,0.006075747309488487,0.013990902874750792,0.0008409489069565615
328,1456703946755656,0.005946429174840746,0.014218403674764827,0.0008829580596621309
329,1456703946776883,0.00548882904713708,0.01346934613657911,0.0009060004541387891
330,1456703946799769,0.004845550056174622,0.011913186816583682,0.0009057986784215859
331,1456703946815661,0.004177099220054864,0.009925853418072044,0.0008807561874249661
332,1456703946838606,0.003595848506334153,0.007995306109366893,0.0008329689718433473
333,1456703946859897,0.0031387512256503664,0.006571899820451043,0.0007693161720738488
334,1456703946877653,0.0027848199638105496,0.005927125559905811,0.0007010094830958002
335,1456703946898619,0.002494618276026605,0.006082497998412212,0.0006415211496959066
336,1456703946919817,0.002240292018368086,0.006831413873545965,0.0006044527545286316
337,1456703946935855,0.0020104676347908004,0.007831530397756479,0.0006024624251471019
338,1456703946957958,0.001798560379606694,0.008722080954029736,0.0006466040362737289
339,1456703946978991,0.0015938278855976119,0.009223352568602562,0.0007443037358757532
340,1456703946995797,0.0013853362070765447,0.009192092508985877,0.0008947857953555614
341,1456703947019931,0.001172507911342639,0.008626415500248464,0.001083242415213302
342,1456703947039512,0.0009692784603296245,0.007631368042465217,0.0012779208354306239
343,1456703947055027,0.0007967710351099707,0.006366768669987313,0.0014344570785382567
344,1456703947078029,0.0006710143669500949,0.004999175582735661,0.0015080120528976472
345,1456703947099070,0.0005953617360024815,0.003671813990591148,0.0014688265028320693
346,1456703947115030,0.0005614190962369362,0.0024950650719683647,0.0013143548082055997
347,1456703947138552,0.0005553434210719896,0.0015502699409521718,0.0010723445378253537
348,1456703947159065,0.0005640060777393178,0.0008951532484310834,0.0007930332159503402
349,1456703947175067,0.0005777726732283509,0.0005626877008686981,0.0005332187187177107
350,1456703947198068,0.0005904075134486584,0.0005540716525869573,0.0003384070829572716
351,1456703947219069,0.0005983456732864249,0.0008332487157146878,0.000230004043014894
352,1456703947235487,0.0006003150961905317,0.001329887729581404,0.00020224774180917658
353,1456703947259972,0.0005965706437623601,0.0019518566418602072,0.00022940025990290065
354,1456703947279183,0.0005873328989680966,0.0026026906436724577,0.0002793999153917226
355,1456703947295974,0.0005716146722978092,0.0031981030587188188,0.00032743315194943374
356,1456703947318975,0.0005479605657419275,0.0036778298928834847,0.00036317245162945696
357,1456703947339797,0.000516965619199324,0.004012094934107438,0.00038911748915081753
358,1456703947355289,0.00048359359995363093,0.004203022983356232,0.0004126928639428036
359,1456703947384625,0.0004573133189539828,0.004280180034402422,0.00043802168070668706
360,1456703947399625,0.000449686776857974,0.00428857165993207,0.0004623290345388843
361,1456703947415293,0.00047049779195867253,0.0042696989064740214,0.0004778578671487068
362,1456703947438814,0.0005240137631118777,0.004241405218477455,0.0004765022930717768
363,1456703947459362,0.0006071108335072368,0.0041861593633092595,0.00045360936354043
364,1456703947475626,0.0007108601981224952,0.004055708887224494,0.00040917254565131094
365,1456703947498542,0.0008256597344540349,0.00379257483789121,0.00034684532931598304
366,1456703947519620,0.000946830818763669,0.0033603024712201826,0.0002723405672659345
367,1456703947535809,0.0010754541961135568,0.002770012487164164,0.00019268563394085467
368,1456703947558829,0.0012116925215560639,0.0020923917016832327,0.0001169085891626082
369,1456703947579565,0.001344419935654038,0.001450021325025079,5.747709588920204e-05
370,1456703947595571,0.0014458779423381439,0.0009920243875688717,3.077213678364616e-05
371,1456703947618568,0.0014781565772580296,0.0008590780720483352,5.475805014906095e-05
372,1456703947639675,0.0014109244130744096,0.0011498497147632595,0.00014316266622891094
373,1456703947669962,0.0012430236354223953,0.001898308630494418,0.0002975930421866822
374,1456703947678663,0.001018258654107079,0.0030656610232671993,0.0005011782806214185
375,1456703947699665,0.0008271678322552153,0.004544437644725987,0.0007182436506472256
376,1456703947715924,0.000789894726937988,0.006169848826542511,0.0009029579726835712
377,1456703947738654,0.0010207542658527211,0.007735969691935346,0.001015658242239961
378,1456703947760977,0.0015833731787504531,0.00901833978108547,0.0010403381649931557
379,1456703947781776,0.002453608881192293,0.009805590305602926,0.0009939548136477672
380,1456703947798765,0.003509426577124837,0.009939007279002062,0.000920701092945965
381,1456703947820766,0.004557806831793806,0.009352988607170092,0.0008719935880028606
382,1456703947835562,0.005391964178789845,0.00810546621381265,0.0008814912032947656
383,1456703947858579,0.005858258555415562,0.006387903585842025,0.0009482807569376137
384,1456703947880581,0.005909157264202198,0.004508612881140399,0.0010373639067351307
385,1456703947901954,0.0056248260344510135,0.002848749524063691,0.0010970857250234315
386,1456703947918582,0.0051947314226801706,0.0017960303822910726,0.0010842408081296574
387,1456703947941040,0.004859556063373331,0.0016665431292560054,0.0009843734408301616
388,1456703947957986,0.004826067519546757,0.0026296918853445325,0.0008182443188074102
389,1456703947977896,0.00518394327676319,0.004653913807899983,0.0006328193847615457
390,1456703947999897,0.005863550668269027,0.007488919946429655,0.0004821153493355872
391,1456703948021938,0.006661703412682826,0.010693883450477618,0.0004064924349873507
392,1456703948038891,0.007327214423238339,0.01371327017311106,0.00041807801439908344
393,1456703948059934,0.007662801217854144,0.015993229294887765,0.0004968466996198524
394,1456703948088940,0.007592682417532108,0.01711781805800384,0.0005984485985933566
395,1456703948097936,0.007169658450382187,0.016927062633615212,0.0006716846811932191
396,1456703948120936,0.006529471320343394,0.015570077616210168,0.0006800972256354991
397,1456703948141893,0.0058218280906893695,0.01346045141779043,0.0006190782170387457
398,1456703948158887,0.005151749226543992,0.011140292583247488,0.0005199818984135888
399,1456703948180871,0.004556687692914902,0.00910663085630738,0.0004379588748379098
400,1456703948201903,0.004026778021348318,0.0076770721768416985,0.00042818331260110137
401,1456703948225886,0.0035506662928654793,0.006946998379814884,0.0005208629740114835
402,1456703948240853,0.003151051511992034,0.006832440734495661,0.0007061502847121435
403,1456703948261915,0.0028805226733024276,0.007148025262127965,0.000936130112252719
404,1456703948278913,0.0027801106508583435,0.0076708902458597125,0.0011439168120901035
405,1456703948300911,0.0028347820891709047,0.008175701718658775,0.001271793624293825
406,1456703948321911,0.002963436907281086,0.008455231965625467,0.0012949359121402551
407,1456703948338770,0.003053047128593186,0.008344862594919174,0.0012285436960826727
408,1456703948360014,0.003012377843015879,0.007754963054956165,0.001115067164819698
409,1456703948381016,0.002809078917336731,0.00669939440149397,0.000999854227881093
410,1456703948398017,0.0024716229287900637,0.005302456029180817,0.0009098190561129766
411,1456703948420017,0.0020646844994642467,0.0037731444501225902,0.0008459703421355878
412,1456703948441859,0.0016586032871647692,0.0023509535510178223,0.0007904852707388905
413,1456703948457861,0.0013068878472305672,0.001242495246900323,0.0007209793463505549
414,1456703948479862,0.001035312067742483,0.0005728775470259983,0.0006235745928531861
415,1456703948502968,0.0008423018424313153,0.00036722510804612407,0.0004999986309715201
416,1456703948517967,0.0007091350067339884,0.0005630535682201011,0.0003676236200983603
417,1456703948540659,0.0006148979509527395,0.0010430337589439778,0.0002534928845999694
418,1456703948569941,0.0005483985773636777,0.0016738674031125304,0.00018484730394737234
419,1456703948578676,0.0005118525958762182,0.002338738852072763,0.0001796565350648165
420,1456703948600677,0.0005168615786415777,0.0029556050507466704,0.0002403889991891706
421,1456703948621996,0.000576612475309693,0.003479906757171689,0.00035266215007498435
422,1456703948638484,0.0006979942537996116,0.0038960193932163593,0.0004886544057440763
423,1456703948659994,0.0008758373714550741,0.0042044219205026176,0.000614171091118243
424,1456703948680996,0.0010904832432735501,0.004410420017801196,0.0006976859893789895
425,1456703948697999,0.001309355908615361,0.004517004908986086,0.0007189172463193571
426,1456703948719997,0.0014927200114396434,0.0045215997528363,0.0006741334898686981
427,1456703948744025,0.0016028741552162119,0.004415630107248821,0.0005764275759379577
428,1456703948758069,0.0016143448616063568,0.0041868619588031715,0.00045125579757007326
429,1456703948780033,0.001521303887470851,0.003825550576108357,0.00032916029953934445
430,1456703948803034,0.0013392462273197551,0.0033347742392998013,0.00023805121653311522
431,1456703948818035,0.0011007808204775806,0.002742666397671012,0.00019716103645850465
432,1456703948841936,0.0008477274890356746,0.002111392566555067,0.00021427045297977863
433,1456703948863208,0.0006219463624352183,0.0015370036216867194,0.0002868827113524036
434,1456703948878207,0.00045662483376874045,0.0011369343219141657,0.00040648753523907347
435,1456703948900208,0.0003699450344078783,0.0010270878569840056,0.0005634973218855945
436,1456703948923210,0.00036375343859774636,0.0012954759791066349,0.0007500170872407045
437,1456703948939298,0.00042899531838800644,0.0019809844068326135,0.000958868198480732
438,1456703948960094,0.0005564273653926312,0.003062489312000014,0.0011794981695950112
439,1456703948983094,0.0007471034719352508,0.0044575669487283325,0.0013932360765782827
440,1456703948999096,0.0010151936761300454,0.006026412040894835,0.0015709770010634983
441,1456703949020096,0.0013781386238733344,0.00757851850091772,0.0016758990872184415
442,1456703949058317,0.0018360912081393484,0.008885321631725139,0.0016725884995906918
443,1456703949061348,0.0023509806956962475,0.009706069455901722,0.0015417912110780555
444,1456703949080312,0.0028399908126085388,0.009832372794879569,0.0012966301584716492
445,1456703949103313,0.0031942894944683568,0.009148547629278468,0.000992695916151379
446,1456703949119314,0.0033215512064198494,0.007693058777404355,0.0007239991704965853
447,1456703949140326,0.003196150378052468,0.005696949849061677,0.0006014266393826128
448,1456703949163335,0.002892727475579355,0.0035747501554616707,0.0007179049894462094
449,1456703949184624,0.002582809758296093,0.001855183719503115,0.001110589209842592
450,1456703949201337,0.0024885553498873625,0.0010594457338446142,0.0017333786590637008
451,1456703949222704,0.002805120003951473,0.0015551924619607992,0.002453305093753346
452,1456703949244354,0.003617072346446083,0.0034267976450444277,0.003079781012994098
453,1456703949259397,0.004841718015810951,0.006404124520288696,0.003423442860926258
454,1456703949282684,0.0062291745194889715,0.009883759651512211,0.003364702752774425
455,1456703949304615,0.007430000224552696,0.013056826090069841,0.0029020891266036404
456,1456703949319613,0.008109665765621674,0.015123547480228924,0.0021568364741609866
457,1456703949342409,0.008063388643222572,0.015533970996896546,0.0013312812524242691
458,1456703949364438,0.007283063123741032,0.01416846100881848,0.0006408301156176041
459,1456703949381421,0.0059510982755667866,0.011382982045281842,0.0002483967396750709
460,1456703949402456,0.004369770713350572,0.007895221068975248,0.00022328945858710638
461,1456703949424421,0.0028619017595923318,0.004554697384975798,0.000532193858199067
462,1456703949439429,0.0016853690450893276,0.002087270904075002,0.001058360853922708
463,1456703949462439,0.0009876196187561894,0.0009073287560834553,0.0016398090631611973
464,1456703949484441,0.0008014244968118993,0.001052292278642147,0.0021156802095720273
465,1456703949499447,0.0010677423904317043,0.0022393015779679387,0.0023690339400578653
466,1456703949522725,0.0016693855847339065,0.004000771886890604,0.002354610336092849
467,1456703949544652,0.002462534390300841,0.005838726134193056,0.002103569250230121
468,1456703949559666,0.003297918527864056,0.007347185082877441,0.0017046789543768974
469,1456703949582746,0.004031502038636522,0.008276970881046728,0.0012701727546138544
470,1456703949604678,0.004533983066239721,0.008543454618402198,0.0008997437777930953
471,1456703949619683,0.004710017647325688,0.008194217509692382,0.0006549264573593308
472,1456703949642480,0.0045256178555945275,0.007358564561757622,0.0005498788794006527
473,1456703949665685,0.004025512175280706,0.00619863766823074,0.0005577366260045648
474,1456703949678875,0.003321091245531946,0.004875672048402297,0.0006274714484305837
475,1456703949702956,0.002549700270890742,0.0035352983537909523,0.000704640174719246
476,1456703949724892,0.0018285059821543663,0.002305408173067492,0.0007494618364637319
477,1456703949739692,0.0012281354724996924,0.001295165684901205,0.0007470059077469563
478,1456703949762705,0.000773128652662659,0.0005879022225717727,0.0007068884300589574
479,1456703949784707,0.000458231666036226,0.00022955333213822652,0.0006533842178365134
480,1456703949799922,0.00026587829319891815,0.00021968852102420978,0.0006105777295464794
481,1456703949822949,0.00017709242557154914,0.0005108179459866522,0.000589557844246333
482,1456703949844720,0.00017515785230743866,0.0010173914580328617,0.0005837685752402942
483,1456703949860941,0.00024439762986296586,0.0016329097965256639,0.0005742553418725717
484,1456703949883910,0.0003669262564981835,0.0022517101471721426,0.0005411772463231468
485,1456703949904905,0.0005202593799099611,0.0027899685079624047,0.0004749701444588983
486,1456703949920902,0.0006781388444115689,0.0031995832405549776,0.00038161563498826414
487,1456703949942987,0.0008151335558426596,0.003470848364204324,0.0002803782630470714
488,1456703949964266,0.0009130021620018287,0.0036243231426507133,0.00019621041115069367
489,1456703949981266,0.0009653406408478627,0.0036960045914297096,0.00015073064882249184
490,1456703950002603,0.000978027690375088,0.003720970598003144,0.00015526059455127998
491,1456703950032338,0.0009655225568621547,0.003719817715143962,0.00020790944873550502
492,1456703950041300,0.0009450589928893307,0.0036910229566372438,0.00029494752477537
493,1456703950062273,0.0009311488358890642,0.0036112383344328656,0.0003952462392384431
494,1456703950084191,0.0009320107767156878,0.0034440125902883683,0.0004858951347485905
495,1456703950100972,0.0009484206593116878,0.003155409221694844,0.0005474120280088571
496,1456703950122184,0.0009745275078244821,0.002732852952855835,0.0005677897321373694
497,1456703950144488,0.0009997356996077696,0.0022016697203711497,0.0005452372405790174
498,1456703950168990,0.001011138646714157,0.0016326969381830168,0.0004894510885605572
499,1456703950181990,0.0009968143533952822,0.0011352231612393488,0.0004207801876125277
500,1456703950204205,0.0009502793878439814,0.0008337123805895066,0.00036637913610505015
501,1456703950219992,0.0008750088597198849,0.00083380510058743,0.0003530472154083945
502,1456703950242503,0.00078663352961814,0.0011894502990925666,0.00039806626964602896
503,1456703950282008,0.0007109954509020615,0.001884119562337181,0.0005012511932649615
504,1456703950287239,0.0006784190214320709,0.0028332882020736527,0.0006422094104845127
505,1456703950309223,0.0007164922447975737,0.003906019480393545,0.0007853616636945144
506,1456703950324224,0.000843944555508209,0.004956115211344484,0.0008918894550520384
507,1456703950347023,0.00106689887394472,0.005851417408634096,0.0009341934018717519
508,1456703950362024,0.0013772702078980053,0.006493102363708959,0.0009067323901646724
509,1456703950385026,0.0017528285843455963,0.006822315868428538,0.0008282785950213174
510,1456703950407330,0.0021590364283184654,0.006816412361232324,0.0007341134325168817
511,1456703950423028,0.0025526726838882457,0.0064802421398018,0.0006609850557273108
512,1456703950444539,0.0028868149966384898,0.0058393677304491454,0.0006311851716197376
513,1456703950467851,0.003117868588223069,0.0049412353777360946,0.0006433825283852324
514,1456703950482837,0.003217201140078297,0.003866196612202915,0.000675414268671186
515,1456703950504854,0.0031882327849061323,0.0027433590939382802,0.0006981273335946657
516,1456703950527833,0.0030825351140899787,0.001759468198125932,0.0006926872296348256
517,1456703950542852,0.0030010497652075653,0.0011467319240682243,0.0006611896485962812
518,1456703950564575,0.003068173586528502,0.0011412215541757049,0.0006242152374051628
519,1456703950587861,0.0033808698815173356,0.0019165500145711084,0.0006069182635485872
520,1456703950602865,0.003954986713109086,0.003511407329333359,0.0006222235270880405
521,1456703950624897,0.004701528763464468,0.005776459468281514,0.0006614561551887688
522,1456703950647595,0.0054539404746069085,0.00836437600812925,0.0006983773752619958
523,1456703950662596,0.00603636415918372,0.010779306879405702,0.0007045860865378772
524,1456703950684897,0.0063345907391204204,0.01248831151368044,0.0006670082181624694
525,1456703950707863,0.006329935722789266,0.013073628400835244,0.000596516093398989
526,1456703950722861,0.006082540294910617,0.01237703252573896,0.0005224792646924604
527,1456703950744609,0.005682031104302012,0.010574500129779452,0.00047733588090925495
528,1456703950767618,0.005198568694643206,0.00813810567776611,0.0004809995178284662
529,1456703950784619,0.00466223330266634,0.005690161952110898,0.0005334822087040443
530,1456703950804620,0.004079318207401023,0.0038066770230937718,0.0006179539704012466
531,1456703950834604,0.0034683283905297757,0.002850388246903344,0.0007103528958177196
532,1456703950844889,0.0028825315802423327,0.002893166889636325,0.0007889698338556951
533,1456703950863897,0.002396995306220567,0.0037401902568375595,0.0008392339298502622
534,1456703950887899,0.0020693843433684973,0.005026572659721273,0.0008536196520402082
535,1456703950903898,0.0019057106725051702,0.00634057896997178,0.0008302057772991524
536,1456703950924900,0.0018560396426432245,0.007332784042595093,0.0007728373472922743
537,1456703950946913,0.0018408762593605979,0.007785590708444637,0.0006923168116799428
538,1456703950963923,0.0017888540304319177,0.007634634985966788,0.0006058490649269202
539,1456703950985925,0.0016635811863976425,0.006948742592767031,0.000533332182697529
540,1456703951007924,0.001469230990568456,0.005884642449066942,0.0004918999509062007
541,1456703951023925,0.0012383963078745144,0.004635000758715408,0.0004911484112339137
542,1456703951044437,0.00101254817110428,0.003385034883810332,0.000530452009553319
543,1456703951066947,0.0008247207671434673,0.00228621195896986,0.0005987156273276164
544,1456703951083946,0.0006898684056732376,0.0014471023123797924,0.0006766419810432787
545,1456703951104948,0.0006038894197996665,0.000934366528812971,0.0007412412227136881
546,1456703951127949,0.0005490651842130986,0.0007751275723632343,0.0007715268503808965
547,1456703951144491,0.0005024253463021904,0.0009567755628079735,0.0007538504377888332
548,1456703951163974,0.000444295064213851,0.001427391023994907,0.0006854873659847985
549,1456703951186970,0.0003655730923898268,0.0021029813254956997,0.0005755319842979978
550,1456703951203971,0.0002725831696431481,0.002883869185001513,0.0004427310889735992
551,1456703951223977,0.00018774560567883997,0.0036754230591747135,0.0003107722616459883
552,1456703951246988,0.00014427325370374325,0.004404119118765245,0.00020249576457390204
553,1456703951269003,0.0001747931324259234,0.0050219288547299476,0.00013478079367035
554,1456703951284194,0.0002969250304455611,0.005498508272239324,0.0001152837833164821
555,1456703951307192,0.0005015309380372851,0.005807297698386455,0.00014146801149297883
556,1456703951324003,0.000749602429442858,0.0059148836361624995,0.0002019674127720522
557,1456703951344741,0.0009809653841193547,0.005781618555334695,0.00027995110842907384
558,1456703951367029,0.001133018999557419,0.005376307352960579,0.0003574956186962316
559,1456703951384024,0.0011627102740558366,0.00470077799932796,0.0004195049858546215
560,1456703951405361,0.001062749000796213,0.0038142054025317907,0.000456053384551131
561,1456703951427329,0.0008653325345328044,0.0028449241414495027,0.00046299631633376736
562,1456703951443539,0.0006320630737568647,0.001980539502902208,0.0004415504293618105
563,1456703951464049,0.0004341986374641714,0.0014347546846970028,0.00039771544683622534
564,1456703951488048,0.00033055774842167727,0.0013988205933240841,0.0003419028460928231
565,1456703951509330,0.00035071669179280457,0.001992637571811841,0.00028836619667806936
566,1456703951524336,0.0004889974231409381,0.0032310370260536423,0.00025355622604958297
567,1456703951547065,0.0007107576286608828,0.005013804765024076,0.00025276255839178156
568,1456703951569073,0.0009676686516191714,0.007138195353823708,0.00029540912934499457
569,1456703951584293,0.0012148822138056032,0.009326757850200628,0.00038075224287216757
570,1456703951607306,0.0014223750510948176,0.011264121113508658,0.0004966689995873562
571,1456703951629288,0.0015760850927841088,0.012641117689473404,0.0006236970415739573
572,1456703951644830,0.0016702781127588544,0.013207835168531785,0.0007439416048504752
573,1456703951667106,0.0016979921119560863,0.012834712471001535,0.0008507605446503139
574,1456703951698107,0.001648371961422628,0.01157192691314244,0.0009528122730868855
575,1456703951704388,0.001516394581853893,0.00968576943513903,0.0010679239722173545
576,1456703951727438,0.001322496691198797,0.007644413076882616,0.0012086874423627744
577,1456703951743628,0.0011307812412024467,0.006033628808890246,0.0013688288905793684
578,1456703951766138,0.0010505615683636628,0.005409225853064255,0.0015209070991733511
579,1456703951787474,0.001211125331426891,0.006127696844418989,0.0016287619057284125
580,1456703951809427,0.0017131454683986815,0.008217565089125361,0.0016670846797879042
581,1456703951832853,0.00257590714254095,0.011342670626398455,0.0016347322711141206
582,1456703951847156,0.0037075605114111243,0.014870271045521024,0.0015530083461095683
583,1456703951869165,0.004918640581654699,0.018018797886826022,0.0014513057500117792
584,1456703951886399,0.005979178895354443,0.020044667527015416,0.001351145218385083
585,1456703951907427,0.006697538159539073,0.020430233551657292,0.001259052233034185
586,1456703951930168,0.006986519478201642,0.01903585763047059,0.0011703734737333689
587,1456703951946180,0.006886364702126967,0.01617175305028453,0.0010782413054239597
588,1456703951967190,0.006534424426898468,0.01254694464022233,0.0009807426928221297
589,1456703951989196,0.0060983232248844116,0.009083843361092685,0.0008834402521900145
590,1456703952006191,0.005708100238582841,0.006644114263876617,0.000798215175753651
591,1456703952027490,0.005419486184719694,0.005762432899933533,0.0007401274665448122
592,1456703952050218,0.00521626455251839,0.006491716631333558,0.0007228300250358223
593,1456703952066212,0.005035302344335866,0.0084162473204245,0.0007525726351007419
594,1456703952087569,0.004794631492325239,0.010815813591288035,0.0008222396379457071
595,1456703952111226,0.0044191759477618595,0.012906855343914324,0.0009089388515822625
596,1456703952126215,0.0038676787217721545,0.014069706110386842,0.000978603322269013
597,1456703952147227,0.003157225444593886,0.013992203022545804,0.0009974992629649918
598,1456703952170237,0.0023709960617044664,0.012702290696366657,0.0009456319729453573
599,1456703952186467,0.001637436109023116,0.01050496088104114,0.0008249618260036472
600,1456703952207449,0.0010854788625426126,0.00786462854065213,0.0006581747114527036
601,1456703952229238,0.0007960999704567975,0.0052768872597926415,0.000479328398574218
602,1456703952254466,0.0007729696710616206,0.0031608906134859118,0.00032163563825370213
603,1456703952267474,0.0009448373940260221,0.0017881998614782744,0.00020760050715170746
604,1456703952290734,0.0011973026594758098,0.0012536109502740587,0.00014418428013635416
605,1456703952306739,0.0014185898000138844,0.0014873385859469554,0.00012335353414817706
606,1456703952327740,0.001538105370559687,0.002301267730353776,0.00012709471872355036
607,1456703952349490,0.0015415147154339763,0.0034535727058870014,0.00013508619388114709
608,1456703952366493,0.001459665453244997,0.004710573810111231,0.00013244375694856076
609,1456703952387833,0.0013422567524250801,0.0058877121647598635,0.00011482571592850917
610,1456703952410760,0.0012322372609418221,0.006862324882770593,8.914600572080865e-05
611,1456703952426494,0.0011520820281653544,0.007562989860642633,6.991407165569427e-05
612,1456703952447507,0.001103646835497742,0.00794780123823841,7.287986294399368e-05
613,1456703952470516,0.0010759785337456833,0.007985724225156183,0.00010844841833851792
614,1456703952486516,0.001054023530204218,0.0076521323287261425,0.0001771640491355358
615,1456703952507834,0.0010245455990108472,0.006942668489928625,0.00026871529584138865
616,1456703952531519,0.0009792524331166516,0.0059004024731798,0.00036463428842408303
617,1456703952545528,0.0009159653134028176,0.004643214127418903,0.0004436037207331661
618,1456703952567538,0.0008378748246592793,0.003375011041657387,0.00048765401568184863
619,1456703952590868,0.000751267724221849,0.0023679512535876943,0.0004876924506066727
620,1456703952606540,0.0006635489546887103,0.0019131590499000652,0.0004471984806205439
621,1456703952627832,0.0005836634151684556,0.0022510807150584703,0.0003830090665363941
622,1456703952649560,0.0005253066449445666,0.003502763775336728,0.00032218929576739117
623,1456703952666561,0.0005109782649025984,0.005623494783937249,0.000294788690087828
624,1456703952689562,0.0005733224570811722,0.008390704845991396,0.0003239641113932749
625,1456703952710820,0.0007499239444084914,0.011426788188296386,0.00041670091980000747
626,1456703952726564,0.0010698086393033659,0.014252273123942208,0.0005590807173030116
627,1456703952749581,0.0015347712205483932,0.016365610774146982,0.0007189754400880828
628,1456703952770582,0.002104015628147353,0.017345811526919806,0.0008561729065250219
629,1456703952786583,0.0026926929664491677,0.01696669397985365,0.0009363523494169413
630,1456703952809585,0.0031916154056285187,0.015296759302206595,0.0009430423241033781
631,1456703952830587,0.003506837181116092,0.012745137544972173,0.0008823382952511613
632,1456703952846595,0.0036061306358242144,0.01001448159176754,0.0007786020377371953
633,1456703952868827,0.0035498752894705336,0.007945399916292235,0.0006637073893653192
634,1456703952890604,0.0034838688655042917,0.007281510565709872,0.0005652564452163527
635,1456703952912604,0.0035859273361168397,0.008430360034137049,0.0004990569285921311
636,1456703952936588,0.00398354303235499,0.011313199002658248,0.0004682557110326703
637,1456703952950839,0.004682696259830723,0.01536633738354815,0.0004679383394398215
638,1456703952973841,0.005550501917249401,0.019692127434856647,0.0004919853187306172
639,1456703952987841,0.0063688383312659235,0.023299448812859138,0.0005387812226234737
640,1456703953010843,0.006934791996391512,0.025354392751914735,0.0006129159593314826
641,1456703953032851,0.007153538682145184,0.025379538307717595,0.0007213285552367561
642,1456703953048862,0.007071680614546526,0.023367878638728235,0.0008651654733062038
643,1456703953069868,0.006833586921423742,0.019793074817325666,0.001031851898309911
644,1456703953092862,0.006588190249692558,0.015503757336843747,0.0011928596951516943
645,1456703953108863,0.006401924303190678,0.011506898209137357,0.0013101133823522054
646,1456703953129867,0.006229553800803411,0.008686067786021013,0.0013492088976763419
647,1456703953151890,0.005959958973152458,0.007545573701601288,0.0012934745656427431
648,1456703953168884,0.005505463007388473,0.008080401808023493,0.0011520113430594303
649,1456703953190885,0.004872038404573759,0.009823086474752466,0.0009578095303752709
650,1456703953219889,0.004161651890262242,0.012038370638864584,0.0007569422597977749
651,1456703953228889,0.0035102041815393637,0.013976593346746268,0.000593777867203246
652,1456703953249948,0.00301089370091843,0.015087473205989648,0.0004980922334874031
653,1456703953271906,0.0026753391526630854,0.015129943560148927,0.0004779290604195303
654,1456703953288907,0.0024484049576818743,0.014165060340927706,0.0005191371741324587
655,1456703953310168,0.0022540439721250574,0.012463044527364133,0.0005907534023329275
656,1456703953332129,0.002038027177571719,0.010376823836490807,0.0006547514052268309
657,1456703953349145,0.0017877401198440788,0.008230888221451703,0.00067785397641771
658,1456703953370147,0.0015280174098666398,0.006255274977674619,0.0006418603539911232
659,1456703953392409,0.001301400270300089,0.0045720001607322406,0.00054863590211906
660,1456703953409147,0.0011433816079632598,0.003222533651913584,0.0004178019632657118
661,1456703953430150,0.0010630848599359002,0.002213068355633843,0.00027848402637452134
662,1456703953452585,0.001037228494039521,0.001551777844457008,0.0001589751083393959
663,1456703953468733,0.0010196457381274066,0.0012606037876057446,7.844151477202505e-05
664,1456703953489729,0.0009621377267152232,0.0013603559396660049,4.3225853526197725e-05
665,1456703953512607,0.0008374914015833327,0.0018431818191818026,4.8059461012360883e-05
666,1456703953528729,0.0006540857149162968,0.0026516865386429153,8.061442390172317e-05
667,1456703953551523,0.0004551425750646749,0.0036774618715846395,0.0001269787413791347
668,1456703953572524,0.0003031252853956805,0.004779982803740928,0.00017593945973058795
669,1456703953588525,0.00025646126861241967,0.00581752923136292,0.00022093529041278392
670,1456703953610757,0.00034784128783724253,0.006678094598886967,0.0002596272728280469
671,1456703953640535,0.00057121995343131,0.007299283729494554,0.0002919259809587336
672,1456703953648536,0.0008810394576426776,0.007670686934338119,0.00031779188044700187
673,1456703953671546,0.0012036886295307444,0.00781903770315848,0.0003359708328473801
674,1456703953692755,0.0014578612571876431,0.007783275478245277,0.00034407241630676484
675,1456703953708725,0.0015777455534053354,0.007590426545334223,0.0003395378256923051
676,1456703953731714,0.0015321271611982478,0.007242544556755288,0.0003207384721251567
677,1456703953752775,0.0013339012310357608,0.006720644256869386,0.00028783970513075014
678,1456703953768776,0.0010371263432801686,0.006005325048014384,0.00024352886023175913
679,1456703953791777,0.0007218911922509377,0.005107100354729312,0.0001935809343050529
680,1456703953812779,0.0004709856147446238,0.0040939784691110485,0.0001467132514316699
681,1456703953828779,0.000345740024171904,0.0031020723904234752,0.00011309206216640364
682,1456703953850715,0.00036920947249522823,0.0023194887387536192,0.000101523166705158
683,1456703953872750,0.0005220848183392348,0.0019446122568240846,0.00011617962089048986
684,1456703953888721,0.0007517405830261675,0.0021328180059601285,0.00015408533719766837
685,1456703953918720,0.0009902128420021755,0.002952795538257936,0.00020456223648603655
686,1456703953931722,0.0011747406607298947,0.004369100842564773,0.000251600842148425
687,1456703953948231,0.0012654777031041924,0.006253258551515088,0.0002792893364520086
688,1456703953970740,0.0012574772284401927,0.008411567547502727,0.00027885865646722763
689,1456703953991748,0.0011852507599739196,0.010613439348191797,0.0002543073299645177
690,1456703954007743,0.0011173076234637096,0.012611266207542595,0.0002232702917012327
691,1456703954030757,0.0011377936482139513,0.01415493041294712,0.00021151977393373586
692,1456703954053762,0.0013160071273607076,0.015012481787917187,0.0002425106185296165
693,1456703954067816,0.001672129337169151,0.01500789286327672,0.0003259963228497942
694,1456703954090765,0.0021545757874802327,0.014076638111965132,0.0004506702406666119
695,1456703954112771,0.0026450618121323394,0.012324013473017037,0.0005848072950956627
696,1456703954128765,0.0029984282110557983,0.010057383737187765,0.0006862398530502119
697,1456703954151070,0.0031069402547143203,0.007761653194899143,0.0007191645494552324
698,1456703954172075,0.0029603176960985252,0.00600402582415004,0.0006715512507586252
699,1456703954195335,0.0026659668799715206,0.005286762272450112,0.0005653942864772826
700,1456703954211072,0.002409838057384525,0.005898668736106087,0.00045400347699499555
701,1456703954232134,0.002372229064104781,0.007824282258725826,0.00040527504564288273
702,1456703954255130,0.002641903524750035,0.010744048514366281,0.0004755749207673971
703,1456703954271094,0.003174442057861303,0.014115803982051485,0.000683734080894101
704,1456703954292319,0.003815480240448792,0.017297946482241547,0.0009967263663009569
705,1456703954315289,0.004373804776603792,0.01967464544569804,0.001335809001159895
706,1456703954331347,0.004704412940621451,0.02076440582967283,0.0016037686909235467
707,1456703954360455,0.004760388790480744,0.02031142139534604,0.0017230634689148826
708,1456703954375161,0.004593295828444169,0.018356510413824467,0.001666950428203763
709,1456703954391140,0.00431043546111618,0.015265016685607296,0.0014675556321426648
710,1456703954412422,0.004017000473554025,0.011676992024386403,0.0011972687271681996
711,1456703954435476,0.003773745585731536,0.008363007754952407,0.0009351419706997339
712,1456703954450987,0.003588422756350778,0.006015123414230829,0.0007373152192117264
713,1456703954473987,0.0034385277650399544,0.005046934693112025,0.000625225425599601
714,1456703954495251,0.00330346356701899,0.005483983918932433,0.0005923585222232481
715,1456703954510989,0.003179642233470361,0.006986901528558304,0.0006193439968438324
716,1456703954531996,0.003069204898240074,0.008989978628848162,0.0006854365517028437
717,1456703954555041,0.0029584630998148367,0.010893229222962514,0.0007714840503055266
718,1456703954571037,0.002812083119125485,0.012234057148984552,0.0008582496434591698
719,1456703954594004,0.002594400889034138,0.012782263964539653,0.0009267941835147255
720,1456703954615005,0.002303466340550984,0.012538332623108368,0.0009630672879392308
721,1456703954631200,0.0019890994774058013,0.01165633923450553,0.0009626143496409261
722,1456703954654226,0.0017364979275328264,0.010342520113249555,0.0009301970453721114
723,1456703954675509,0.0016231840786666545,0.008782927298307026,0.0008740366390047475
724,1456703954691504,0.0016763878597240282,0.007126303176282716,0.0007996973592971132
725,1456703954714231,0.0018558333570187087,0.005508223223420728,0.0007086403708453253
726,1456703954735786,0.0020691716311823424,0.00407701879809915,0.0006016429651609015
727,1456703954751542,0.002209789491070914,0.0029881972055465756,0.00048303535198776726
728,1456703954774542,0.0021989316359898544,0.0023646045302312593,0.00036196364414446295
729,1456703954795791,0.002014849600559361,0.0022489500331669267,0.0002502568114992286
730,1456703954811544,0.0016974272604876946,0.0025819010945559227,0.00015899497956476858
731,1456703954834303,0.0013270774777775194,0.003221303853865204,9.577274944211087e-05
732,1456703954855546,0.0009891404484970439,0.003992340327902019,6.332522614006553e-05
733,1456703954871215,0.0007416849028250948,0.004742690518575277,5.941141148697859e-05
734,1456703954894181,0.0006006696239395293,0.005378070575203808,7.777712364089458e-05
735,1456703954915487,0.0005458149996999265,0.005866916189705717,0.00010998714410542092
736,1456703954931184,0.0005404248933039308,0.006218703486620313,0.00014771865528676628
737,1456703954954222,0.0005532462576618091,0.006450717973493495,0.0001849140941912952
738,1456703954975223,0.0005717739610480975,0.006560220638280759,0.00021908940825951818
739,1456703954991485,0.0006027317429605167,0.006514325655309166,0.00025116692149117106
740,1456703955014227,0.0006624775071053571,0.006261520648429964,0.0002836464812582207
741,1456703955035748,0.0007639626384518013,0.0057596799721486335,0.0003177567443869109
742,1456703955051029,0.0009067375976360009,0.005008635583326125,0.00035098063410275384
743,1456703955074030,0.001073428302783216,0.004073281621567175,0.0003764270347711088
744,1456703955095292,0.0012323367847164605,0.003086359247631345,0.0003847958414799522
745,1456703955111030,0.0013441235716275036,0.0022271273897918847,0.0003685153542672191
746,1456703955134678,0.0013713853639298018,0.0016809645931151183,0.00032650669740990913
747,1456703955155559,0.0012903214378227207,0.0015929634784344264,0.00026743085573392033
748,1456703955171503,0.0011014753125713676,0.002031928231599567,0.00020954104205375533
749,1456703955194534,0.0008344504314621046,0.0029765368768910946,0.00017636476744933206
750,1456703955215308,0.0005434364949891031,0.004324426094074099,0.00018902299093202375
751,1456703955231507,0.0002954036516223797,0.005914905541311319,0.00025758450199990426
752,1456703955253713,0.00015594414521379404,0.007553656626123343,0.0003748803346545815
753,1456703955275713,0.0001764109729305306,0.00903328787354172,0.00051600869588072
754,1456703955291714,0.00038292104866539413,0.010151583524397245,0.0006449056141512694
755,1456703955314717,0.0007669189450862887,0.010733761234414389,0.0007262104011054818
756,1456703955335736,0.0012791874814606155,0.010663210882923716,0.0007377567249066007
757,1456703955351245,0.0018321263744675584,0.009918094364669047,0.000678329063883197
758,1456703955373284,0.0023153150353644528,0.008602566684348988,0.0005675786364170479
759,1456703955395614,0.002624556808655757,0.006955646111026861,0.0004389009223381036
760,1456703955411248,0.002696492515198717,0.0053222168602691895,0.00032923560524512625
761,1456703955433250,0.002535108382597043,0.004082457428415303,0.00027023863591646034
762,1456703955455772,0.002217883471421389,0.003555952573133137,0.0002829191390277085
763,1456703955470739,0.0018774507103495384,0.003913724987314524,0.00037466894217237434
764,1456703955492558,0.001664325503395083,0.005131522801324169,0.0005366242055143906
765,1456703955515703,0.001702242491254271,0.006998415906396615,0.0007415878756655953
766,1456703955537547,0.002048471390656609,0.00917001423899427,0.0009459236134262399
767,1456703955552791,0.0026695603686764774,0.011242846744338026,0.0010990590408659036
768,1456703955575790,0.0034411713935086413,0.01283055640871655,0.0011600610129231948
769,1456703955597792,0.004177854988159455,0.013634040438215374,0.0011147450108551353
770,1456703955612792,0.004689356526699492,0.013502627251132767,0.0009837911877998138
771,1456703955637607,0.004843966809073496,0.012475997608395092,0.0008158883945150825
772,1456703955656912,0.004609183812623655,0.010785874099259107,0.0006685538048927568
773,1456703955672907,0.004050002950355273,0.00879961221202943,0.0005864878448465513
774,1456703955695909,0.0032912580378119255,0.0069120831760595405,0.0005875558376810298
775,1456703955717125,0.002470277538389102,0.005424679885130684,0.000660656755468444
776,1456703955732912,0.0017034641042585439,0.004465712746052549,0.0007733540911577438
777,1456703955756733,0.0010724180186832048,0.0039880417357715005,0.0008843708425851785
778,1456703955777734,0.0006219706262634622,0.0038365586923694074,0.0009566492255878275
779,1456703955792735,0.0003631509542502124,0.00384134002322395,0.0009677517643605204
780,1456703955815737,0.0002803648898283415,0.0038877690034972165,0.0009146713751875419
781,1456703955837700,0.00034317009590954507,0.003939601738033833,0.0008114169715427085
782,1456703955860042,0.0005185889376649745,0.00402047830545034,0.0006811034580367252
783,1456703955876036,0.0007769999595263107,0.0041745298786063575,0.0005471397512135937
784,1456703955897039,0.001088276878877014,0.004426615775347731,0.0004274732856719832
785,1456703955913040,0.0014127380983973163,0.00475626770645801,0.0003326169118367063
786,1456703955936656,0.0016968260209159218,0.005092503487704957,0.000265925908300452
787,1456703955957345,0.0018814356430069306,0.005329906954805125,0.0002248488605519884
788,1456703955973345,0.0019219718699574064,0.005359973466966466,0.0002029538146238165
789,1456703955996347,0.0018091738810239134,0.0051074122259165975,0.00019262382287286493
790,1456703956017355,0.001576806942717467,0.004559938153728752,0.0001876540953797465
791,1456703956033349,0.0012902992131035014,0.0037815072040377137,0.00018474770043403984
792,1456703956056173,0.0010229883900959836,0.0029024651814447476,0.00018356463649736918
793,1456703956077475,0.0008333924590481662,0.002086346872656098,0.00018596134028768603
794,1456703956093176,0.0007536475497214897,0.0014819268252194123,0.00019535029307392814
795,1456703956116176,0.0007899242403963305,0.0011771885549915898,0.00021628122953580217
796,1456703956139469,0.0009278869888043307,0.0011737004611545331,0.0002533212554204056
797,1456703956153477,0.0011362617213194147,0.0013924752679559172,0.0003085554086643109
798,1456703956176648,0.001368401702333512,0.0017085445379093442,0.0003786139729224204
799,1456703956196479,0.0015672397157362697,0.001998654615151727,0.0004533332387414701
800,1456703956212606,0.0016770384370973705,0.0021818182800456844,0.0005174934365179948
801,1456703956236223,0.001658928231287456,0.002237840605541323,0.0005551809948627763
802,1456703956256741,0.0015034450336800964,0.002200337996722368,0.0005550426151627924
803,1456703956272734,0.0012345918323906806,0.0021317013387359995,0.0005147729130156202
804,1456703956296737,0.0009039233105978224,0.0020930142617566062,0.00044375463464574777
805,1456703956317736,0.0005771715059151719,0.002120816732736745,0.00036305066581001656
806,1456703956332738,0.0003183189457901709,0.002216979908992248,0.0003021669343155487
807,1456703956355674,0.00017571072490442128,0.00235166386891233,0.0002927088120928057
808,1456703956377544,0.00017257991145123728,0.00247534296798932,0.00036020128150074105
809,1456703956392713,0.00030255989476287625,0.0025348488736147245,0.0005163671397680263
810,1456703956416545,0.0005305867171952155,0.002488930015952903,0.0007544891407038748
811,1456703956437629,0.0008000650862263303,0.0023194183729711845,0.0010497491212561668
812,1456703956452847,0.001046646714335614,0.0020350218409205144,0.0013645669418763477
813,1456703956475850,0.0012169071747293618,0.0016675614344171476,0.0016567940034991257
814,1456703956498850,0.0012872244903949252,0.0012645736539846797,0.001887854113328459
815,1456703956512851,0.001275619064369241,0.0008837483917423414,0.0020292698507315397
816,1456703956536361,0.0012394232726106308,0.0005908352343756303,0.0020678357450357376
817,1456703956558870,0.0012561647172227085,0.0004562804025719693,0.0020097344804817104
818,1456703956579870,0.0013925953532647859,0.0005435432213414323,0.0018819241860769185
819,1456703956595871,0.0016731076931710864,0.0008872412711609842,0.0017275118008173258
820,1456703956618872,0.0020606709868019103,0.001468698324226173,0.00159353360065917
821,1456703956632873,0.002460721162226107,0.0022029740758515736,0.0015148517120398208
822,1456703956656185,0.002751167116045594,0.0029494104516986875,0.0015023985680729503
823,1456703956679186,0.0028295500925030618,0.0035469383415055625,0.001542370807602887
824,1456703956693187,0.0026562588183713606,0.0038620081854621063,0.0016056514077882925
825,1456703956716188,0.0022710544158241965,0.0038298336768885412,0.0016605685165102329
826,1456703956739483,0.0017739741105591668,0.0034730916769232394,0.0016822685919106865
827,1456703956760326,0.0012820430714478922,0.002892812086105984,0.0016565190696877666
828,1456703956775992,0.0008852839429083175,0.002236626353394268,0.0015794835784443222
829,1456703956798997,0.0006223699102865925,0.0016554360460924308,0.0014557509175490604
830,1456703956820358,0.000482519905711996,0.0012613314364904825,0.001296034657458144
831,1456703956836662,0.00042589297075806235,0.0010990066293978655,0.001115209326188207
832,1456703956859014,0.00040800996765731813,0.0011396965683456127,0.0009309402306559879
833,1456703956880014,0.0003964965383176696,0.0012995074351381643,0.0007625774222041027
834,1456703956896015,0.0003762512918677898,0.001474476667984557,0.0006292793674964837
835,1456703956919016,0.0003458706747423652,0.0015778601923435735,0.0005463917781116873
836,1456703956940536,0.00031069262350234833,0.0015653015380597357,0.0005205596855357677
837,1456703956956046,0.00027673770489209623,0.0014402873902057184,0.0005460260121021927
838,1456703956979048,0.0002474288839146125,0.0012413861795538945,0.0006050466978288945
839,1456703957000316,0.0002232066582791645,0.0010196794877132664,0.0006733006620606437
840,1456703957016276,0.0002033238408272123,0.0008171314252230645,0.0007280375776403528
841,1456703957039533,0.0001883785245142287,0.0006543540857459068,0.0007550733467473174
842,1456703957060581,0.00018156110817915975,0.0005308858226275994,0.000751718810289651
843,1456703957076527,0.0001872862773222864,0.0004351550598378426,0.0007251722649171371
844,1456703957106284,0.00020793759279265288,0.00035733216000527403,0.0006879473463093499
845,1456703957120621,0.00024112678024311562,0.0002979219011817619,0.0006525849610912553
846,1456703957136286,0.00027959636972726195,0.00026807113062176356,0.0006274249782431535
847,1456703957159309,0.0003139933004797177,0.000282311837988296,0.0006142871004959187
848,1456703957180325,0.0003368231812691632,0.00034832403052718924,0.0006081594326452576
849,1456703957196313,0.0003453008191444164,0.0004594434106587479,0.0005987663138590741
850,1456703957219312,0.0003417035393444331,0.0005937956246723859,0.0005739817853048454
851,1456703957240699,0.00033128527354838935,0.0007204123425687294,0.000524720243942866
852,1456703957256137,0.000318794581273292,0.0008093665374178152,0.0004497924259946506
853,1456703957278137,0.00030504701490239705,0.0008412881081231887,0.00035818821751522833
854,1456703957300180,0.00028526640678027803,0.0008121495499591033,0.00026681488699453027
855,1456703957316174,0.00025071472132605734,0.0007316333661886183,0.00019406079892885997
856,1456703957338356,0.00019359161703267713,0.0006166044070000179,0.00015206635307326547
857,1456703957360395,0.0001127141140561706,0.0004835948977261666,0.0001414120943933394
858,1456703957376580,1.6233726493642868e-05,0.00034435355735336804,0.00015064448353639359
