,timestamp,emg1,emg2,emg3,emg4,emg5,emg6,emg7,emg8
0,1456703940361362,-0.004799156034974561,-0.04603912479235897,0.007336296276988546,0.02212767635804843,0.06402472120149222,0.04882615904025048,0.09508373791013608,0.013016119688233591
1,1456703940361362,0.09464438637030549,0.15471671242813748,1.020211054015034,1.4783329085095982,0.8309518517579161,0.19240541947291942,0.19703812597247058,0.1419328241674633
2,1456703940362363,0.19505190308605214,0.3549544474147721,2.014268546369651,2.931113841680425,1.5872714877153615,0.3361603698723684,0.29829367615690655,0.2693242803696644
3,1456703940362363,0.29523171380662094,0.5515667800814387,2.9787901725606267,4.358830120999642,2.321276798089545,0.4786766762722717,0.3976050417201248,0.3936138550999819
4,1456703940365363,0.39403918217252165,0.7416118441698002,3.9037766901938804,5.740633853481552,3.0218401068480016,0.618541903599655,0.4937778635398267,0.5133048667013128
5,1456703940365363,0.4904052454659106,0.9223910952451012,4.780190595259837,7.057001707408861,3.6787027825659555,0.7543734375536558,0.5856982718068154,0.6270158216752486
6,1456703940366578,0.5833601801250211,1.0915173788865633,5.6001626569164635,8.29020011863939,4.282726486817477,0.8848435780096622,0.6723586260451136,0.7335117229087462
7,1456703940366578,0.6720519754082865,1.2469708260820576,6.357155606065945,9.424669445862003,4.826098585454892,1.0087016352050093,0.7528785230105285,0.8317306107488794
8,1456703940371607,0.7557590329733554,1.387140869760305,7.046080685594179,10.44731994381148,5.30248735761089,1.1247931018675112,0.8265204916374822,0.9208047170190554
9,1456703940371607,0.8338972524785759,1.510853369418216,7.663365095111091,11.347737689791737,5.70714461007139,1.2320760898732686,0.8927002340457102,1.0000757693954883
10,1456703940380363,0.9060218918814514,1.6173823869248014,8.206969844358216,12.118301545490283,6.036954898307893,1.3296353378131132,0.9509916304170662,1.0691041434285582
11,1456703940380363,0.9718248291557747,1.7064466217862422,8.676358826635314,12.75421452524263,6.290432431451987,1.416694186436855,1.0011269635619375,1.1276717538106114
12,1456703940386404,1.0311279778932978,1.7781911206039853,9.072422007370907,13.253456254048505,6.467669113164068,1.4926249186866907,1.0429929837862346,1.1757787663414827
13,1456703940386404,1.0838736599383358,1.8331556806249882,9.397358364668895,13.616667192541897,6.570239638518124,1.5569577810756285,1.0766235356624798,1.2136343680888013
14,1456703940401369,1.1301127341675494,1.8722321473150754,9.65452647576508,13.846978252283357,6.601071428934486,1.609388884318333,1.1021894674444546,1.2416420010985274
15,1456703940401369,1.1699912235903114,1.8966133192112509,9.848271629749027,13.949800197023213,6.564288015057208,1.6497870188486559,1.1199864517638527,1.2603796988300955
16,1456703940410400,1.2037361061574783,1.907736368596745,9.98373831872662,13.932586078482391,6.4650343996128665,1.678199196176201,1.1304212323225045,1.2705764239478066
17,1456703940410400,1.2316408758793325,1.9072236366222772,10.066676561820069,13.80457777722826,6.309292326797158,1.6948544749023418,1.1339967260292927,1.2730854807520726
18,1456703940424885,1.2540514287706297,1.8968234295775093,10.103249943849745,13.576545171901378,6.103692489305233,1.7001654294142425,1.131296352873893,1.2688561012946737
19,1456703940424885,1.2713527506810391,1.8783530753805582,10.09985224109163,13.260523856355537,5.855329614075885,1.694726534852022,1.1229679177658436,1.2589042175778928
20,1456703940432881,1.2839567812146233,1.8536460635671328,10.062937943218946,12.86955499595096,5.571585160550329,1.6793087843497072,1.1097073214944269,1.2442833206325619
21,1456703940432881,1.2922917233167361,1.824504645473317,9.998870211570013,12.41742929374047,5.259961131545539,1.6548499617029153,1.0922423438926012,1.2260562237440091
22,1456703940439390,1.2967929737477646,1.792658822705197,9.913788297647992,11.91843618855901,4.927927348766013,1.6224400889882595,1.071316746409262,1.205268470792034
23,1456703940439390,1.2978957633837054,1.7597321990724972,9.81349525365865,11.387118854489136,4.5827835713816345,1.5833016894372964,1.0476749840067732,1.1829240164769923
24,1456703940487392,1.2960295199450764,1.7272147578560262,9.703365652547257,10.838034944144335,4.231537059402235,1.5387647796017592,1.0220478465687053,1.1599636593982237
25,1456703940487392,1.2916139007869791,1.6964423261817483,9.588271993599259,10.28552253916896,3.880795627118897,1.4902369583582618,0.9951393138220527,1.137246580100169
26,1456703940488638,1.285056376248181,1.6685823283086407,9.472527972100133,9.743470911182463,3.5366759611244785,1.4391694551383727,0.9676148174859295,1.1155352421250597
27,1456703940488638,1.2767511549579844,1.6446253558744741,9.359847239269614,9.225096705634298,3.2047270019210425,1.3870204002298425,0.9400910197315725,1.0954838236503346
28,1456703940491393,1.2670791176260852,1.6253820170116526,9.253317325174104,8.742727906405587,2.8898683862830925,1.3352168481850328,0.9131271708978149,1.0776302313718231
29,1456703940491393,1.2564082656374398,1.6114844375051594,9.155389120621066,8.30759981546561,2.5963441205886637,1.2851172032778078,0.8872180994740296,1.062391615724079
30,1456703940492393,1.2450940317038004,1.6033916970913553,9.067882161949221,7.9296684383419205,2.3276916219065646,1.2379756423039712,0.862788910096874,1.050063191560698
31,1456703940492393,1.2334787216286314,1.6013984145830067,8.992005292558433,7.617446655776617,2.0867259554260933,1.1949099388363904,0.8401914977547904,1.0408201000561146
32,1456703940498587,1.2218894425444513,1.6056456345011194,8.928391796529905,7.377867680789952,1.8755386199330317,1.1568738357522408,0.8197029798343615,1.0347220301483402
33,1456703940498587,1.210634132208724,1.616133082094149,8.87714795941367,7.216179193035955,1.6955097921902988,1.1246348359088847,0.8015260884876835,1.031720333260349
34,1456703940507393,1.199995625723793,1.6327317411723767,8.837913680503801,7.135870667244081,1.5473326738388065,1.0987580046194894,0.7857914926236292,1.0316673816934556
35,1456703940507393,1.190223956472876,1.6551956495086497,8.80993278868606,7.138635884902496,1.4310484771451881,1.0795961195347266,0.7725619613597277,1.0343279027399954
36,1456703940513664,1.181527296313677,1.683171943188468,8.79212934517397,7.224372265444436,1.3460905414147935,1.0672862754910106,0.7618382280458473,1.039391954024474
37,1456703940513664,1.1740621732098515,1.7162086115338708,8.783185257692717,7.391218195076414,1.2913360530445066,1.0617528578157425,0.7535663403526777,1.0464891214488923
38,1456703940529400,1.16792383485642,1.7537600661385606,8.781614719711595,7.635628898258078,1.2651639147541356,1.0627166347208667,0.747646180018039,1.0552034613934487
39,1456703940529400,1.163137745717415,1.7951912246619766,8.785832356462697,7.9524907224819374,1.265517508852499,1.0697095655361983,0.7439407329154194,1.0650886835443478
40,1456703940536406,1.1596531694789967,1.8397811471063383,8.794213767458691,8.335272931507658,1.289971332109821,1.0820947437717998,0.7422856334276392,1.0756830746332104
41,1456703940536406,1.1573396407326002,1.8867273537416103,8.805148589530171,8.776214976698716,1.3358006294309999,1.09909069463552,0.7424985222607636,1.0865237146094273
42,1456703940545407,1.1559869119589739,1.9351519368362544,8.817087011784686,9.266545778662872,1.400053198808636,1.1197990810080949,0.7443878293083598,1.0971596550167422
43,1456703940545407,1.1553086939169896,1.9841104943445809,8.828581003167495,9.796730138376375,1.479622509085548,1.143234795093811,0.7477606956913798,1.1071638812969904
44,1456703940558408,1.1549502181047082,2.0326047058599928,8.838321414265998,10.35673613659221,1.571321169388581,1.1683574135885924,0.7524298616095992,1.116143988254831
45,1456703940558408,1.1544993837647068,2.0795990195519614,8.84517151365821,10.936316076954238,1.6719536104157868,1.1941030063223315,0.7582194371228506,1.1237515136331486
46,1456703940567408,1.1535010374722146,2.12404147581079,8.84819663748724,11.525292021509381,1.778386592798979,1.2194152790536052,0.7649694948829523,1.1296898271596727
47,1456703940567408,1.15147376636131,2.164888234750184,8.846689046964821,12.113835285557787,1.8876158702445707,1.24327504724296,0.7725393675494393,1.1337204204485667
48,1456703940573409,1.1479284545636759,2.2011309750328545,8.840187158374942,12.692727538196472,1.9968270751912558,1.2647271435883771,0.7808094641612107,1.1356674120138637
49,1456703940573409,1.1423877699097713,2.231826044733377,8.82848875119341,13.253589778165066,2.1034488109736436,1.2829040608236193,0.7896814313916031,1.1354200765978553
50,1456703940588410,1.1344057421920364,2.2561240636744575,8.811657960761641,13.789065264229427,2.2051961773490394,1.2970458695618308,0.7990766016561872,1.1329332571551267
51,1456703940588410,1.123586664479822,2.2732985358703752,8.790025427652173,14.292944501514034,2.3001035279551436,1.3065161762132387,0.8089328329123441,1.1282256403607849
52,1456703940596410,1.1096026657071156,2.2827718972925592,8.764180006607146,14.760225033460873,2.386545987545602,1.3108140816427722,0.8191999998710301,1.1213760353141005
53,1456703940596410,1.0922094428750921,2.2841373787079657,8.734949597727478,15.187105262265195,2.4632499286295646,1.309582274394298,0.8298345333982297,1.1125179382630501
54,1456703940605410,1.071259776129196,2.2771752645350896,8.703368921665147,15.570918140538069,2.5292930852996682,1.3026115280367856,0.8407935087929529,1.1018327747664214
55,1456703940605410,1.0467145315097446,2.261862674870265,8.670633904761727,15.910015856465852,2.5840952677318674,1.289841926898275,0.8520288207960145,1.0895422669124182
56,1456703940618915,1.0186508741389806,2.238376782488406,8.638045072571016,16.203619961696077,2.6274008456140194,1.2713611137293772,0.8634819528763109,1.075900350717627
57,1456703940618915,0.9872674277287056,2.2070920848953737,8.606944542285241,16.45165281140514,2.6592543735221774,1.2473998068206624,0.8750797798724972,1.0611849864339287
58,1456703940627917,0.952886187368241,2.1685726978023614,8.57865200850495,16.654565940551176,2.679970903239382,1.2183248485542588,0.8867317501624292,1.0456901207029852
59,1456703940627917,0.9159511318634137,2.1235606197411347,8.554404784423264,16.813179341070846,2.6901026154149923,1.1846301320270909,0.8983286762196263,1.0297180016158678
60,1456703940634135,0.8770236466404381,2.0729607580448257,8.535306125905828,16.92854276133004,2.6904033986380282,1.146925856120668,0.9097432328374564,1.013572003162876
61,1456703940634135,0.8367749802457085,2.017823371727858,8.52228511886147,17.001826434479486,2.6817928687556605,1.1059266064970736,0.9208321435563247,0.9975500819292131
62,1456703940648422,0.7959759583646152,1.9593244739336704,8.516070500666926,17.034244677104994,2.665320991582026,1.0624386945088786,0.9314399397144455,0.9819389688081368
63,1456703940648422,0.7554840932983065,1.8987445782757657,8.517179854608878,17.027012330191837,2.6421340084105847,1.0173470279165293,0.9414040900805333,0.9670091597073951
64,1456703940656637,0.7162281361862172,1.8374459844100874,8.525924445256244,16.9813312341609,2.6134419730948024,0.9716016392948433,0.9505612087265836,0.953010683451464
65,1456703940656637,0.6791900834067672,1.7768486971430295,8.542428464110152,16.898401372039782,2.5804880669460726,0.9262039596761954,0.958753970124338,0.9401695335529887
66,1456703940665423,0.6453846795656617,1.7184051570577028,8.566659832569297,16.779448887444,2.5445199580852176,0.882192991225839,0.9658383242163631,0.9286846195520695
67,1456703940665423,0.6158365543651144,1.6635741802774382,8.598468411098352,16.62576198082258,2.5067636595113383,0.8406316011597865,0.9716906312867808,0.9187251290228734
68,1456703940678624,0.5915552859779225,1.6137946937656782,8.637627081185766,16.4387270827404,2.4684004487983104,0.8025931437574833,0.9762144220241258,0.9104282574468817
69,1456703940678624,0.5735088743006993,1.5704598798896032,8.683872032269715,16.219861470528635,2.4305473832437654,0.7691485210825738,0.9793465883862384,0.9038973434040806
70,1456703940689638,0.5625962801465161,1.5348922350933376,8.736940264971976,15.970842396177524,2.394241834187646,0.7413536681011352,0.9810628727269676,0.8992005325773709
71,1456703940689638,0.5596197964262724,1.5083199240119776,8.796603884574086,15.693534632893336,2.3604303541007683,0.7202373333919139,0.981382534380281,0.896370155239223
72,1456703940693425,0.5652580641049795,1.49185473524963,8.86270162793597,15.390018018632706,2.329962101010586,0.7067889338826633,0.9803720562889954,0.8954030020611154
73,1456703940693425,0.5800405571336256,1.4864719049320254,8.935168234340237,15.062615475797926,2.3035869450888224,0.7019461934327532,0.9781477334121523,0.896261611969164
74,1456703940708427,0.6043243586502031,1.4929920654324302,9.014061896558662,14.71392112313769,2.281958230083605,0.7065822501288165,0.9748769798506794,0.8988765673590704
75,1456703940708427,0.6382740413450656,1.512065584940168,9.099589373667717,14.346827531125852,2.2656399067386928,0.7214919674231494,0.9707782052381134,0.903149663348227
76,1456703940716428,0.6818454418912551,1.5441595153560872,9.192127855669124,13.964550700309577,2.2551173609383532,0.7473773091114213,0.9661191262946733,0.9089576991355841
77,1456703940716428,0.7347740714292049,1.58954722414798,9.29224257406252,13.570650824984307,2.2508107877478203,0.7848317962559989,0.9612133948762845,0.9161565461163701
78,1456703940725936,0.7965688247629829,1.6483006397942275,9.400699141237839,13.169046085544954,2.253089573099205,0.8343242235363214,0.9564154517925597,0.9245851213808692
79,1456703940725936,0.8665115428269402,1.7202850127472957,9.518469217024133,12.764015425290467,2.262285975263276,0.8961819718769513,0.9521135555208939,0.9340689706815785
80,1456703940738958,0.9436628550939362,1.8051561945139303,9.646727287225763,12.360185045036902,2.2787064747488324,0.9705744090669717,0.948720993676727,0.9444233034920277
81,1456703940738958,1.0268745899708012,1.9023605655337648,9.78683551185971,11.962493286117494,2.3026394141070914,1.0574969875780518,0.9466655901800709,0.9554554470077076
82,1456703940747959,1.1148088879023952,2.011137800010706,9.94031341396769,11.576130151072105,2.3343578845519017,1.1567566817096784,0.9463777736706152,0.966966770870194
83,1456703940747959,1.2059639622830685,2.1305266232651667,10.108790063920226,11.206450154113162,2.3741172025328323,1.2679593399134168,0.9482776303040179,0.9787542088536404
84,1456703940754157,1.2987062094303037,2.259373637681402,10.293938137815163,10.858859548732216,2.4221468048302435,1.3904994284287406,0.9527614805241511,0.9906115756132119
85,1456703940754157,1.3913080771803417,2.396345212492932,10.497391201183234,10.538681367375352,2.4786369785496314,1.523552626899785,0.9601885631460998,1.0023309158308642
86,1456703940769126,1.4819907873513802,2.539942368670753,10.720647480351174,10.251004520764187,2.5437213835242716,1.6660718632854172,0.9708683639596349,1.0137041140755683
87,1456703940769126,1.5689707052572794,2.688518557142476,10.964965094889873,10.000525647113431,2.6174566489549225,1.8167875783536487,0.9850490178139156,1.0245249501601592
88,1456703940777162,1.65050789839824,2.8403002481488886,11.231254834570318,9.791393208129751,2.6998004440480945,1.9742131671288818,1.0029071208130786,1.0345917097596329
89,1456703940777162,1.7249552492662954,2.9934103238470358,11.519976669931625,9.627062508828459,2.7905894789773775,2.136656580465446,1.0245392665325626,1.0437103444275502
90,1456703940792157,1.7908063773230227,3.1458943671394826,11.831045398215407,9.510168932183452,2.8895189589287913,2.3022389780270003,1.049955631656014,1.0516980476830968
91,1456703940792157,1.8467405497520148,3.295750017152346,12.163749665495759,9.442425319667748,2.996125033684577,2.4689211160040734,1.0790759068713187,1.0583870379245583
92,1456703940799155,1.8916626743706528,3.440959535897038,12.516687622329961,9.424547978341394,3.109771705680765,2.63453782280672,1.1117277736066802,1.0636283367650319
93,1456703940799155,1.9247363858879296,3.5795255043028904,12.88772215142281,9.456214282881257,3.2296435140967272,2.796840465164502,1.1476480011663004,1.0672953602230772
94,1456703940808124,1.9454083115041398,3.709509098173912,13.273959087339575,9.536053580017203,3.3547451432724364,2.9535467749916444,1.186486134378797,1.069287163970121
95,1456703940808124,1.9534220275105265,3.8290697728178555,13.671752413597982,9.661672137734072,3.4839088769407676,3.1023968437912006,1.2278106999722092,1.06953121756603
96,1456703940814106,1.9488210028222936,3.9365046145203637,14.076739935212613,9.829711921144618,3.6158104707797665,3.241213529810413,1.2711178799609613,1.0679856419947706
97,1456703940814106,1.9319407265326367,4.0302853317943255,14.483911049268702,10.035941779309848,3.748993529101774,3.367965023471524,1.3158426305802993,1.0646408969595882
98,1456703940828909,1.9033909483361768,4.109090966028444,14.887705672315652,10.275378157321391,3.8819018711097097,3.4808269631607245,1.361372204241047,1.0595209079161267
99,1456703940828909,1.864029425144137,4.171834772688444,15.282140985730981,10.542430816967048,4.012918689107148,3.578241272002391,1.407061924910298,1.0526835965444146
100,1456703940837189,1.8149288334301221,4.217684158835863,15.660960990551558,10.831067426242273,4.140410596255001,3.6589686550826928,1.4522528670787174,1.0442207794244303
101,1456703940837189,1.7573386137878557,4.246073013021719,16.01780319555867,11.134989434544389,4.262774026846868,3.7221314069443046,1.4962908173631653,1.0342574335586052
102,1456703940851189,1.6926434408527478,4.256706241367258,16.346376728459187,11.447810684145944,4.378480987919409,3.7672431063942557,1.5385456159139406,1.0229503422850377
103,1456703940851189,1.6223198221490165,4.249556737528806,16.64064584215394,11.763230137978743,4.486121009307136,3.794222402284695,1.5784297741459272,1.0104861180064155
104,1456703940859190,1.547892166851787,4.22485530490616,16.89501169925715,12.075190955101622,4.584436411227252,3.803389591139341,1.615415233394934,0.9970786087459542
105,1456703940859190,1.4708895911704105,4.183074292179011,17.104483945680723,12.378019309706485,4.6723485637338715,3.795446538880596,1.649047284988025,0.9829657754679458
106,1456703940867190,1.3928046954088429,4.124905958090759,17.264833069248795,12.666537455325726,4.748973374898327,3.771441917978275,1.6789549495423235,0.9684062235516435
107,1456703940867190,1.3150555142922498,4.051236822771975,17.372715978023347,12.936147156935451,4.813624897316042,3.732724444844521,1.7048574282110927,0.9536755916760776
108,1456703940874191,1.238951786582607,3.963119459139379,17.425770478367117,13.18288219253917,4.8658071037212105,3.680887111124787,1.7265665390338378,0.9390629194415226
109,1456703940874191,1.1656665746249224,3.861743275352439,17.422677461915764,13.403431222203285,4.905195555711878,3.617705581159427,1.7439852989017348,0.9248669898629959
110,1456703940888192,1.0962140581007112,3.7484057333100425,17.36319074376436,13.595133730187683,4.931612173311258,3.5450739530992017,1.757102982733014,0.9113925417748691
111,1456703940888192,1.0314340433818,3.6244851214860496,17.24813414131133,13.755952382670943,4.944996954752406,3.4649408746373562,1.7659871080613652,0.8989462009587363
112,1456703940896193,0.9719834081331974,3.4914156095165705,17.079365851847097,13.884426392176678,4.945380374699357,3.379248609871563,1.7707729093239242,0.8878319979267741
113,1456703940896193,0.9183343715360018,3.3506650077682654,16.859712522891442,13.979612443199104,4.93285977677745,3.289877176611297,1.771651027430766,0.8783464234555941
114,1456703940911194,0.8707791760430271,3.203715407200374,16.592878042085033,14.041020944904899,4.907582558749855,3.198595213373563,1.7688543473322518,0.8707730900521107
115,1456703940911194,0.8294405192884833,3.0520465952377536,16.283333050598504,14.068554706151893,4.869738190344171,3.107018867016159,1.7626451000727898,0.8653771654100091
116,1456703940918194,0.7942868893667756,2.897121897155785,15.936190584853335,14.062455016354384,4.81956004572995,3.0165797243004984,1.753303400597874,0.8623997860974313
117,1456703940918194,0.7651518132149163,2.7403760518976306,15.557072428945965,14.023257802874864,4.757336837794162,2.9285025631727652,1.741118256221942,0.8620526540563809
118,1456703940927699,0.7417559296575955,2.583204959026412,15.151970293145549,13.951760777656684,4.683432322156049,2.843793347562888,1.7263817719384602,0.8645129989092984
119,1456703940927699,0.7237307805873269,2.4269574858690444,14.727105407765707,13.849001235189329,4.598311000040076,2.763237362203033,1.7093868679732274,0.8699190732919637
120,1456703940933706,0.7106432815486473,2.272929749578217,14.28878925777626,13.716243042602436,4.502566797835816,2.6874067358249847,1.6904283897076726,0.8783663254472663
121,1456703940933706,0.7020199426306855,2.1223622200686063,13.843287396741363,13.554970244466293,4.396951146422187,2.616675959528609,1.6698070974336399,0.889904355681854
122,1456703940948206,0.6973700241495886,1.976439658956119,13.396688173862106,13.366883952157961,4.282396621115278,2.551243467045563,1.647835730096117,0.9045347322614449
123,1456703940948206,0.6962069216247523,1.836293485336905,12.954778748778118,13.153899261681646,4.160032538074976,2.4911569910638147,1.6248461751666787,0.9222097464451471
124,1456703940956205,0.6980671737145827,1.7030058011502043,12.522931289671174,12.918139761478878,4.031189762037807,2.4363403797075813,1.6011967417536508,0.9428322244244453
125,1456703940956205,0.7025265710829955,1.5776140883100067,12.106002414976519,12.661928124615015,3.8973931904094403,2.3866198988739673,1.5772786029500363,0.9662565442680984
126,1456703940971207,0.7092129404187544,1.461115498684938,11.708249058968777,12.387771875568141,3.7603414230358214,2.341748595997368,1.5535206141867812,0.9922909728504187
127,1456703940971207,0.7178153198927115,1.3544696788622077,11.333264060000023,12.098343836868231,3.6218739045334334,2.3014278615493122,1.5303918856484922,1.02070131729729
128,1456703940978207,0.7280894194445408,1.2585992375551733,10.983934244249928,11.796457379698975,3.4839267287351747,2.26532585586984,1.5084016610939042,1.051215708586275
129,1456703940978207,0.7398594229859782,1.1743873071044557,10.662422205614268,11.485037464939152,3.3484794544476233,2.233092950140822,1.4880962211497935,1.0835301713760996
130,1456703940987208,0.7530163121139446,1.102672089981802,10.37017096053658,11.16708913948693,3.2174962488340704,2.2043746149038745,1.4700526588381406,1.1173145590165883
131,1456703940987208,0.7675129807367416,1.0442386359613,10.107929244688332,10.845665114949297,3.092865011522113,2.1788221631319864,1.4548694402644613,1.1522184763668328
132,1456703941001209,0.7833564810484454,0.9998082540875145,9.875794851574472,10.52383316419606,2.976337891508947,2.156101501776637,1.4431536890052912,1.18787692860219
133,1456703941001209,0.8005978090437348,0.9700259736129562,9.673273578431866,10.20464283150486,2.8694761054264273,2.1358997608183614,1.4355052020659351,1.2239155479337094
134,1456703941008208,0.8193197219725156,0.9554464387173724,9.49935136943176,9.891090315741588,2.7736014043323207,2.117929510694888,1.4324974012920946,1.2599553275705684
135,1456703941008208,0.8396231744948551,0.9565185987119597,9.352577055089526,9.586081053502017,2.68975597796654,2.1019303351065224,1.434655750128477,1.295616816127659
136,1456703941016208,0.8616130264512112,0.9735695194426511,9.23115286183008,9.292391154280915,2.618672088795067,2.0876677989313595,1.4424345166106283,1.330523680366185
137,1456703941016208,0.8853836810125283,1.0067876002187437,9.13302940501264,9.012630126466108,2.5607523608887113,2.0749302385367696,1.4561930146761906,1.3643054809584705
138,1456703941031720,0.9110052565455342,1.0562055163402384,9.056000922983337,8.749207260662727,2.5160613739741047,2.0635241546320553,1.4761725840366149,1.396599540042676
139,1456703941031720,0.9385108078493466,1.121683385772692,8.997795475181107,8.504302846074832,2.4843288922393465,2.053269182984741,1.5024756370339152,1.4270519580240715
140,1456703941038219,0.9678850341443478,1.2028929097386523,8.956154564994517,8.279844111711304,2.4649646260103495,2.043993583804486,1.5350481320124816,1.4553180676112798
141,1456703941038219,0.9990548565199662,1.2993034085698194,8.928897531106735,8.077485057455293,2.4570839712110253,2.0355309368876373,1.573666767474088,1.4810627609646971
142,1456703941047219,1.0318821909585498,1.4101706888783554,8.913967805623104,7.898589155313485,2.459543796130348,2.0277183715264084,1.617931979686432,1.5039611489246123
143,1456703941047219,1.0661591712552312,1.5345295734686997,8.909460334701562,7.74421413503132,2.4709870358534562,2.0203963514773164,1.667267500160146,1.5236999622411862
144,1456703941054220,1.1016060207494198,1.6711907752656345,8.913631625229709,7.615098733900825,2.4898945562181183,2.0134098632142066,1.7209268632688843,1.5399800293997594
145,1456703941054220,1.1378717604289448,1.8187426550400505,8.924895484111262,7.5116522042794225,2.5146424498304927,2.0066107965211097,1.7780068938452362,1.5525200613181862
146,1456703941068221,1.1745379441051935,1.9755582942073244,8.94180830289433,7.433947986840923,2.543562620371996,1.9998612679118437,1.8374678526037989,1.5610618387478572
147,1456703941068221,1.2111255633215303,2.139808230392664,8.963047865825455,7.381722803816516,2.575004153824831,1.993037542761153,1.8981595649627423,1.5653767509452652
148,1456703941076221,1.2471051277581287,2.309479116889007,8.987389365063198,7.3543816535960085,2.607392556649678,1.986034061082257,1.9588525092030071,1.5652734770647114
149,1456703941076221,1.281909727291597,2.482398461832278,9.01368168404761,7.351008420656507,2.639283575482495,1.9787669440428266,2.0182725287487253,1.5606064344165387
150,1456703941091222,1.3149506823277837,2.656265487313269,9.04082608017961,7.370381506214682,2.669408225991778,1.971176364661215,2.075137640926708,1.5512844737849085
151,1456703941091222,1.3456352265299665,2.828688024013979,9.06775834387258,7.410994000125512,2.6967060938913026,1.9632273721221425,2.128195409325539,1.5372792343854356
152,1456703941098222,1.3733855359413145,2.997225188173276,9.093434763721682,7.471078116413425,2.720345041468148,1.9549091303302617,2.17625950695968,1.5186326031341797
153,1456703941098222,1.3976583228139199,3.1594353231633976,9.116822178841861,7.5486335876828035,2.73972697494916,1.9462329477487963,2.2182443233416618,1.4954628263225545
154,1456703941107223,1.417964178884652,3.3129283012481934,9.136892968679485,7.641459410158613,2.754480844080655,1.9372297813626482,2.253196665154963,1.467968937168599
155,1456703941107223,1.4338858925145586,3.4554207818048375,9.152626398302848,7.747187994650939,2.7644451218032446,1.9279479565744664,2.2803237295308496,1.436433239984107
156,1456703941121944,1.445095049372419,3.5847924358568704,9.163017634466147,7.863320677521501,2.76964250336966,1.918451618921107,2.29901659672866,1.4012216207656738
157,1456703941121944,1.4513663144039854,3.699140513795538,9.167094881292734,7.987263718760082,2.770249578335085,1.908820015057194,2.308868497304529,1.362781465097302
158,1456703941128974,1.45258885442201,3.79682955880469,9.163943991790312,8.11636423945668,2.766563956465747,1.8991472465143397,2.309687064707802,1.3216369998588193
159,1456703941128974,1.4487744042517572,3.8765327717222617,9.152739108643345,8.247945928335579,2.758970956970952,1.8895418086592974,2.3014997669775976,1.2783819636334945
160,1456703941136235,1.4400615628416642,3.9372618201274125,9.132777356520988,8.379344720416203,2.7479116460192694,1.8801251581189649,2.2845518523181325,1.233669657489793
161,1456703941136235,1.426716094488582,3.978382981444919,9.103515119452679,8.507944991845768,2.733853775681716,1.8710288105818995,2.259296502985817,1.188200610962035
162,1456703941151235,1.4091272853486874,3.9996192589810002,9.064603025278961,8.631217073164136,2.717266960010013,1.8623899719281023,2.226377393836903,1.1427082661469037
163,1456703941151235,1.387800640059196,4.001039856034359,9.015916480473605,8.746756826528589,2.6986031011614826,1.854346207634205,2.186604351621224,1.0979431798989314
164,1456703941158236,1.3633472919502767,3.9830394461501006,8.957578202085154,8.85232734723383,2.6782826028183218,1.8470299011895037,2.1409232219835936,1.0546562614673092
165,1456703941158236,1.3364704786668284,3.946309941194706,8.88996861491199,8.945901646993656,2.6566863390431474,1.8405631744269875,2.0903813789554255,1.0135815593055686
166,1456703941167237,1.3079494126486162,3.8918073702975664,8.813720003082949,9.025704229188925,2.6341528065949427,1.8350537012196952,2.036090562843212,0.9754191468706545
167,1456703941167237,1.27862090806772,3.8207163730315097,8.729692054459873,9.09024958987775,2.610979497036077,1.8305916375382079,1.9791888715780082,0.9408187167090916
168,1456703941181237,1.249359204277019,3.734414616954438,8.638929900534281,9.138376781465935,2.5874273449264185,1.8272477674733345,1.9208037393728006,0.9103645045206232
169,1456703941181237,1.2210545202894862,3.6344389947368474,8.542609290531127,9.169280232168754,2.5637271373908295,1.8250728547101067,1.8620176227807015,0.8845620923477561
170,1456703941188238,1.194590942444238,3.52245472408203,8.441975414690319,9.18253712728056,2.540086958938543,1.8240980408048035,1.8038378795629784,0.8638275092335275
171,1456703941188238,1.1708242596176546,3.4002276175549437,8.338281875917568,9.17813080689452,2.5166999817697273,1.8243359864695492,1.7471719802982526,0.8484789063607427
172,1456703941196238,1.1505603309753825,3.2695990049522643,8.232735284352215,9.156468408376144,2.493752033934722,1.8257823798854298,1.6928087705645989,0.8387309488177117
173,1456703941196238,1.1345345333255497,3.132462218521805,8.126449634587928,9.118390209955384,2.4714283294471935,1.82841745559209,1.6414060470611462,0.8346919255158873
174,1456703941211239,1.123392806345686,2.990739296704239,8.020413260935285,9.065168586092067,2.449918696089187,1.8322072486713288,1.593484273607528,0.8363634347006217
175,1456703941211239,1.1176747908861433,2.8463567159461287,7.915469916591164,8.998496154702002,2.42942080180004,1.83710441820375,1.5494259005719193,0.8436423870641692
176,1456703941218239,1.1177995252448918,2.701219483191536,7.812314546082653,8.920464559351633,2.410141237867461,1.8430485952697342,1.5094795204829483,0.8563250123980175
177,1456703941218239,1.1240541162428759,2.5571835967242955,7.711503589562665,8.83353631115563,2.392294654716373,1.8499663449565336,1.4737680134059468,0.8741125591355082
178,1456703941227745,1.1365857271259838,2.416027473296229,7.613478992059407,8.74051189832775,2.3761013285611003,1.8577709830152425,1.4422998578579316,0.8966184126531614
179,1456703941227745,1.1553971228844337,2.279423321220453,7.518604314604998,8.644493226994502,2.3617835867405352,1.8663626231802932,1.4149828290851314,0.9233764066698864
180,1456703941241251,1.1803459167204584,2.148909600787358,7.427210444741623,8.548842898071868,2.3495614822824806,1.8756288780351478,1.3916393590774747,0.953850164835605
181,1456703941241251,1.2111476070267053,2.0258657189101013,7.3396476220971545,8.457137477161721,2.3396479769353,1.8854465618822385,1.372022920267591,0.9874433860543735
182,1456703941248251,1.247382469188049,1.9114900229454295,7.256340114246056,8.373112337971666,2.332243685974947,1.8956845888617322,1.355834903645131,1.0235110557637106
183,1456703941248251,1.2885063194667277,1.8067820071750107,7.177839874073684,8.300596218349707,2.327531084209955,1.9062080615597818,1.3427415342212348,1.0613716084795581
184,1456703941256292,1.3338650726695802,1.7125294310498476,7.104875558249675,8.243435331115995,2.3256681170594566,1.916883312467652,1.3323903658509337,1.1003200767988577
185,1456703941256292,1.3827128770785126,1.629300793803485,7.03839313493556,8.205409053402123,2.3267813995002102,1.9275834394953286,1.3244258379753677,1.1396422244529356
186,1456703941271253,1.4342334422295302,1.5574433216102752,6.979584076067812,8.190140749095855,2.3309594456677503,1.9381937530658775,1.3185033295536872,1.1786295648453062
187,1456703941271253,1.4875639979482167,1.4970863147432805,6.9298973026205255,8.201007533007317,2.3382464634281916,1.9486165438908722,1.3143012038312165,1.216595013188332
188,1456703941278253,1.5418211568246067,1.448149446533838,6.891032104669433,8.241052092057554,2.3486371181723693,1.958774610511015,1.311530520798559,1.2528887176117702
189,1456703941278253,1.5961277941305378,1.4103554845582196,6.8649110629731345,8.312898732311117,2.362072429428819,1.9686130126794716,1.3099423032118123,1.2869134031038496
190,1456703941287253,1.6496398971638064,1.3832469108071344,6.853633772397961,8.418675088308719,2.3784367702843503,1.978098599296281,1.3093323584592278,1.3181384402508263
191,1456703941287253,1.7015721913958741,1.36620596356687,6.859413258964726,8.559940554869225,2.397555844704473,1.9872170371678635,1.3095436772283462,1.3461119084098763
192,1456703941301255,1.7512212710068296,1.3584776388876714,6.884497501897434,8.737622338232224,2.4191954758068595,1.995967303985229,1.3104664629086706,1.3704701280087859
193,1456703941301255,1.7979849661263563,1.3591951868573153,6.931078958359486,8.951959906951991,2.443061054089872,2.004353911840283,1.3120359732998197,1.3909443364540393
194,1456703941308255,1.841376770034189,1.3674076642530808,7.001195701319822,9.202458776442077,2.468797646867954,2.01237755512066,1.3142285103255407,1.407364262890419
195,1456703941308255,1.8810343845704385,1.3821091456598362,7.096628507748151,9.487855339869775,2.495991064694412,2.0200253683146356,1.3170559534832376,1.419658369308299
196,1456703941316256,1.9167219025197053,1.4022691752443168,7.218798630019418,9.806095558979525,2.5241704981686652,2.0272623091863577,1.3205591991914294,1.427850606506969
197,1456703941316256,1.948325771527342,1.4268639220980543,7.368670940165386,10.154330889451561,2.552813538120391,2.0340251537781975,1.3248008432096021,1.432053739002598
198,1456703941331798,1.9758452379881284,1.4549073266433323,7.546666849704483,10.52893441468553,2.581354393364654,2.040220204372099,1.3298574605313396,1.432459555089665
199,1456703941331798,1.9993782643064872,1.4854813669640061,7.752591123567061,10.925539103061553,2.6091959170098673,2.0457252341432146,1.3358118225719713,1.4293265082291065
200,1456703941338268,2.019103998549321,1.5177644729158366,7.9855764205835404,11.339098781103834,2.635725700226966,2.050395607704256,1.3427453023724434,1.42296551127556
201,1456703941338268,2.0352629060429863,1.5510570795084968,8.24404882653515,11.763971006472651,2.660336061864621,2.0540740379946336,1.3507306216730608,1.413724735785315
202,1456703941347267,2.0481356815666936,1.5848033427104455,8.525716560058312,12.194019744290676,2.682447289561174,2.0566030905948374,1.3598250734099937,1.401974329085787
203,1456703941347267,2.0580219781649123,1.618608155331398,8.827582648093692,12.622734915557544,2.7015329823928638,2.0578392919448265,1.3700644034119536,1.3880919068824615
204,1456703941361269,2.065219805557473,1.652248809687831,9.145981407239098,13.043365639080857,2.717145847199607,2.0576675103881175,1.3814575765467054,1.3724495074129361
205,1456703941361269,2.0700062645451602,1.685680935218714,9.47663854066751,13.449064123887172,2.728941932337953,2.056014203439571,1.3939826334448973,1.3554024627606092
206,1456703941368269,2.0726202081731113,1.719038633203166,9.814755107610269,13.833037322252853,2.7367012181077106,2.0528582581338854,1.4075837951951797,1.3372804369714462
207,1456703941368269,2.0732474978999162,1.7526289718650003,10.155115484417411,14.188703393888211,2.7403428309832254,2.0482385051321126,1.4221699568859705,1.3183807535136052
208,1456703941376269,2.072009682086866,1.7869211459454322,10.492218159384555,14.509849714173681,2.73993385697427,2.042257412941035,1.437614726260219,1.2989640773719142
209,1456703941376269,2.0689570097128387,1.8225306237033179,10.820426117171232,14.790788581428158,2.735691601654178,2.03508080596868,1.453758133993952,1.2792524793224131
210,1456703941391275,2.064066568289269,1.8601985244822805,11.1341313649535,15.026505979160659,2.7279798989056006,2.0269336876765527,1.4704099983187704,1.259429841873272
211,1456703941391275,2.0572459761262842,1.9007663700923898,11.427926351603368,15.212798038997068,2.7173004480857847,2.0180924532589524,1.487354690639332,1.2396444314398987
212,1456703941398270,2.04834254654562,1.9451463330599712,11.696773803975322,15.346389856581,2.7042801228440636,2.0088739612723714,1.504356829218764,1.2200132613475356
213,1456703941398270,2.037157288191033,1.9942872164466485,11.936165882820157,15.42503234584262,2.689654971349673,1.999622092466951,1.5211673405039952,1.2006276789312762
214,1456703941407271,2.0234626029555693,2.049136616145087,12.142263832492201,15.44757411382657,2.6742514511455067,1.9906925675493847,1.53752940380178,1.1815595230160159
215,1456703941407271,2.0070221635265155,2.11059999861311,12.312010793351847,15.414005567736725,2.6589653465649734,1.9824369145183713,1.553183964671035,1.1628672309213144
216,1456703941422071,1.9876112640029584,2.1794977957210437,12.443212755948986,15.325471377423499,2.6447387172358487,1.9751865311373111,1.5678746688688798,1.1446013568363238
217,1456703941422071,1.9650360016419146,2.2565220607092833,12.534584773034586,15.184246607264205,2.6325350811648613,1.9692377578469058,1.5813521858242514,1.1268090407002398
218,1456703941428981,1.9391499892957762,2.3421945704665035,12.585761217144542,14.993673288605255,2.6233129175627514,1.964838773755951,1.5933779695438903,1.1095370544156429
219,1456703941428981,1.9098678353973966,2.436828290990095,12.597270809251034,14.758058037129048,2.617997593924413,1.9621789595380308,1.6037275849156258,1.092833192491079
220,1456703941436390,1.8771751693730647,2.540493856242329,12.570479782664126,14.482535517228293,2.617451954582039,1.961381110973038,1.6121938398734583,1.0767459815100524
221,1456703941436390,1.8411353586469366,2.6529923698248834,12.50750912213595,14.172905148972623,2.622445908127284,1.9624965392743023,1.61859007957493,1.0613229320709188
222,1456703941452180,1.8018932204586091,2.7738356235299384,12.411133206304882,13.83544922713228,2.6336254119800953,1.965502776336298,1.6227540194169494,1.046607789840977
223,1456703941452180,1.7596760538502503,2.9022347848765517,12.284667159208103,13.476740548095474,2.65148146737317,1.9703034852274754,1.62455234350496,1.0326373892436391
224,1456703941459181,1.7147922958388169,3.0370986739296355,12.131849498066558,13.103447484115566,2.6763202096053087,1.9767302972838785,1.6238860082578372,1.019438727574643
225,1456703941459181,1.6676280853686907,3.1770427831484573,11.956725889418665,12.722144272583204,2.70823572813076,1.9845465036781194,1.6206958691919766,1.007026758452855
226,1456703941474181,1.6186419939026215,3.3204100092570847,11.763538897280434,12.339133751399476,2.7470875936523753,1.9934526249861155,1.6149679746916306,0.9954031938460383
227,1456703941474181,1.5683581407216642,3.4653035783247566,11.556627127469975,11.960288571617815,2.7924850903551066,2.003093789501165,1.6067377181067615,0.9845563706846886
228,1456703941481459,1.5173578836329886,3.6096319418481304,11.340335258454838,11.590915313000764,2.8437799581660044,2.0130686410239162,1.5960920987734617,0.9744620553151474
229,1456703941481459,1.4662703071194363,3.751164661699124,11.118934779980602,11.235644686818643,2.900069166390922,2.022939326104867,1.5831696305000291,0.9650849847404805
230,1456703941496183,1.4157617937619884,3.8875975749263443,10.896554367474366,10.898350543292723,2.9602088328965213,2.032242112748853,1.5681578315521127,0.9563809853955532
231,1456703941496183,1.366524964067525,4.016624819609194,10.677118677101694,10.582100237556075,3.0228397722664737,2.040498357128144,1.5512885566059447,0.94829961502706
232,1456703941497190,1.3192671602388013,4.136014590417226,10.46429456648362,10.289138285970227,3.0864243164385137,2.047225710334459,1.53283157906628,0.9407873616052717
233,1456703941497190,1.2746985010478802,4.243684890726816,10.261443870225548,10.020903814694586,3.149293141273994,2.051949521044765,1.5130868060382945,0.9337914402482418
234,1456703941511397,1.2335194540543966,4.337775258492111,10.071581717908654,9.778080176104462,3.2097000170056083,2.054214357445052,1.4923753974714502,0.9272641300519748
235,1456703941511397,1.1964079119029891,4.416710503096442,9.897339262400868,9.560672667619937,3.26588180264505,2.0535955127060563,1.4710299831657558,0.9211674136539502
236,1456703941518383,1.164005896022403,4.479252725217512,9.740929826842093,9.368108076680105,3.316120648942635,2.049710294664717,1.4493842141233801,0.9154774880872463
237,1456703941518383,1.1369061525837632,4.524538315248102,9.604117831397545,9.199348350841198,3.358805172580172,2.0422288100329813,1.4277620369553663,0.9101885861733431
238,1456703941533937,1.1156389663613104,4.552097634633669,9.488190630229107,9.053010353811194,3.392487250351977,2.03088382910424,1.4064672187252616,0.9053155530090101
239,1456703941533937,1.100659501923759,4.561856850643624,9.39393488727223,8.927484342986302,3.4159312023330157,2.0154792104572676,1.385773656863458,0.9008947789727487
240,1456703941541595,1.0923359566643598,4.554123325893414,9.32162085684265,8.821045286710806,3.428152779227066,1.9958963715804792,1.3659168953010064,0.8969833388988697
241,1456703941541595,1.0909388100176431,4.529557248230701,9.270998833057202,8.731953194688984,3.4284465727235425,1.9720984661784688,1.3470871412159806,0.8936564288534515
242,1456703941556606,1.0966314615090147,4.48913265681925,9.241311629136831,8.658540706976648,3.4164017575352106,1.9441322139863744,1.329424004186673,0.89100336194069
243,1456703941556606,1.109462561093093,4.434091071142164,9.231325652891377,8.599287589374255,3.3919069170327805,1.912127589082664,1.3130131238008245,0.889122479539015
244,1456703941564401,1.1293603581508118,4.365890837223773,9.239381466225096,8.552882421691967,3.3551450963321474,1.8762957113548415,1.297884758944984,0.8881153844136608
245,1456703941564401,1.156129422796313,4.28615502567055,9.263462921941295,8.518272083971091,3.306580504687367,1.8369252872393345,1.2840143185327677,0.8880809259487742
246,1456703941571689,1.1894501099225125,4.196620202668487,9.30128235780813,8.494699789446935,3.2469385409321783,1.794377838700167,1.2713248000983393,0.8891093607871751
247,1456703941571689,1.2288811381227531,4.099087783774266,9.350378228887958,8.481732050324243,3.1771808653644045,1.749081807529222,1.2596911626285396,0.8912770723155492
248,1456703941578686,1.2738656318649282,3.995379174607908,9.408221004613434,8.479273960053543,3.098477025689456,1.7015255160521636,1.2489466792100088,0.8946421770029698
249,1456703941578686,1.323740897875819,3.8872956022637783,9.472322827233079,8.48757105520634,3.012173775522481,1.65224895481041,1.2388911968487133,0.899241285140413
250,1456703941593688,1.377752047014102,3.776583357616559,9.54034605062247,8.507195723705198,2.9197628428926876,1.601834416970932,1.2293010016305084,0.9050875989062555
251,1456703941593688,1.4350693291446193,3.6649049087981016,9.610205484124348,8.539017263894166,2.8228476445786446,1.550896054576382,1.2199397541219714,0.9121704087197708
252,1456703941601693,1.4948087511572394,3.5538159438995116,9.680159402564469,8.584156804180973,2.723109379300076,1.5000685088093302,1.2105698072297715,0.9204559154639457
253,1456703941601693,1.5560552381049266,3.4447480170704483,9.748885436145788,8.64393009082632,2.622273021542795,1.4499949020691458,1.2009631906699219,0.9298891895720544
254,1456703941616404,1.6178873150927193,3.338996304028232,9.815538993314535,8.719781784598482,2.5220738225800017,1.4013146226624305,1.1909116575868903,0.9403969750408108
255,1456703941616404,1.6794020905576776,3.237712035245866,9.879793052271538,8.813214530827633,2.4242248450242996,1.3546513735699042,1.18023538568508,0.9518909561862002
256,1456703941617404,1.7397392784543833,3.1418993201553254,9.941858273471388,8.925715242662141,2.3303857810658437,1.3106018602763119,1.1687900965105815,0.964271056993984
257,1456703941617404,1.7981031411453916,3.052416129557774,10.002481368947848,9.058680112430753,2.2421330021270607,1.2697253277697795,1.15647243821869,0.9774283698633118
258,1456703941631701,1.85378153383013,2.9699790242110486,10.062918184583891,9.213339011970534,2.1609306975371014,1.232533999805671,1.1432235005794589,0.9912474162522488
259,1456703941631701,1.906161588680187,2.895170777638714,10.124877374676238,9.39067932640159,2.0881031494057574,1.1994843571221805,1.129030364666553,1.0056076006307808
260,1456703941639023,1.9547418559528262,2.828449562731133,10.190432270046285,9.591369036164812,2.0248084974951444,1.1709691435781997,1.1139256766287937,1.0203838891699992
261,1456703941639023,1.9991408043101826,2.770158224962505,10.261902541047068,9.815679142365543,1.9720145714205566,1.147310040482787,1.0979853713140124,1.0354468816678157
262,1456703941654215,2.0391014517996244,2.7205325027841116,10.341711764535892,10.063406476541505,1.930477458863835,1.1287510833304197,1.081324815953887,1.0506625221962047
263,1456703941654215,2.074491650430549,2.6797076697091615,10.432230219724746,10.333799612941943,1.9007235214150198,1.115453047178322,1.0640937514968536,1.0658917153161238
264,1456703941661311,2.105299355953556,2.6477236668635005,10.535613748317953,10.62549258996314,1.8830356301657292,1.1074891342258892,1.0464704526997555,1.0809901041731573
265,1456703941661311,2.131622251140994,2.6245292337126958,10.65364975591502,10.936452491527737,1.8774444177631315,1.10484232308841,1.028655497389356,1.0958082326454441
266,1456703941677188,2.153651456966686,2.609985813360844,10.787620746631923,11.26394696348901,1.8837252249608896,1.1074046763353438,1.010865446926966,1.1101922391287522
267,1456703941677188,2.171649739886626,2.6038721167938412,10.93819433555831,11.604536790075803,1.9014011635247787,1.114978778368054,0.9933266419038299,1.123985108717865
268,1456703941677188,2.185925406685213,2.6058901952761193,11.10534661579062,11.954097528745743,1.92975246975402,1.1272813330164781,0.9762692455444147,1.137028378397384
269,1456703941677188,2.1968036850429873,2.615673709250508,11.2883231670786,12.307873059756872,1.9678321823429143,1.143948815939361,0.9599216088912111,1.1491640987818739
270,1456703941692026,2.204597681844255,2.6327988025288227,11.485639000601656,12.660562267895248,2.014488053152989,1.1645449577320242,0.9445049616780508,1.1602368356171602
271,1456703941692026,2.2095810659674973,2.6567976007445355,11.695115612374805,13.006437627444248,2.0683903263817855,1.1885697379905604,0.9302283734436954,1.170095542729634
272,1456703941699134,2.211964527814371,2.687173890497096,11.913950519748099,13.339491391405199,2.128064584162983,1.2154695137640164,0.9172839348551286,1.1785952313458838
273,1456703941699134,2.211877826753518,2.7234200841789575,12.138812689522238,13.653601853147066,2.1919284185911416,1.2446478921087238,0.9058421921934204,1.1855984655730587
274,1456703941713028,2.2093588549412786,2.765034259137508,12.365956443154529,13.942709439649274,2.258330436346457,1.2754769773140469,0.8960479752727473,1.190976808145223
275,1456703941713028,2.2043506764187595,2.8115360133183884,12.591346649546944,14.200991121582502,2.325590109891918,1.3073086837453916,0.8880168270229327,1.1946124133054845
276,1456703941721554,2.1967069867081057,2.862480160865149,12.810788817387374,14.423022466705332,2.392037232486388,1.3394859207835645,0.8818322544118871,1.1963999957296112
277,1456703941721554,2.186205883010401,2.917467776372101,13.020058462669338,14.603919401416901,2.4560501045690786,1.371353597781687,0.8775439963660924,1.1962493789225985
278,1456703941736053,2.172571247367827,2.9761545137948895,13.215024498682645,14.739455231946081,2.5160918939551946,1.4022694769281485,0.8751674605333464,1.194088757289187
279,1456703941736053,2.155500463073005,3.0382562560595434,13.391761754170604,14.826151529473956,2.5707447253021316,1.4316148643492577,0.8746844079390261,1.189868724482173
280,1456703941737062,2.1346966479918867,3.1035519860035703,13.546649014765496,14.861343718284115,2.618740975336709,1.4588050167688744,0.8760448465606231,1.1835670382651968
281,1456703941737062,2.1099031278984355,3.171883450194079,13.676451524769064,14.843223793512744,2.658991089191716,1.483299032145839,0.8791699386942738,1.175193995324006
282,1456703941751065,2.0809375321448558,3.2431508682397574,13.778389578792131,14.770863628350575,2.6906070857110964,1.504608925261789,0.8839555761506778,1.1647981625422024
283,1456703941751065,2.047722748672057,3.3173038238293446,13.850196162829564,14.644222846186969,2.7129208681859605,1.5223075645614952,0.8902761938105144,1.1524720540668734
284,1456703941758063,2.0103121282608747,3.394326844899687,13.890166255515547,14.464145404706978,2.7254965864885348,1.5360351686437048,0.8979884184659594,1.1383571814514235
285,1456703941758063,1.9689068544998762,3.4742201241357358,13.897199243215436,14.232348871905735,2.7281366160144587,1.5455041465976882,0.906934278293041,1.1226477972347897
286,1456703941773068,1.9238642445841256,3.5569769648701697,13.870834660377392,13.951409505388614,2.720881106133571,1.5505022309626537,0.9169438745000696,1.105592677121791
287,1456703941773068,1.87569670532784,3.6425602789550395,13.811280204458997,13.624744444455182,2.704001368624707,1.5508940834034248,0.9278375779290207,1.0874944715783261
288,1456703941781063,1.8250618955399052,3.7308805440111574,13.71942975380812,13.256589967426057,2.677987614232513,1.5466217878870288,0.9394279210922274,1.068706432607167
289,1456703941781063,1.7727452168774507,3.821777199440084,13.596868194862404,12.851972460085365,2.643531735997201,1.5377047730501128,0.9515213992080072,1.0496265636890452
290,1456703941797064,1.7196360682591874,3.915004806344559,13.445859232235394,12.416666790986554,2.60150591917228,1.5242396346049174,0.9639203822925282,1.030689395269842
291,1456703941797064,1.6666994127322596,4.010224610196788,13.269311874492827,11.957135621654814,2.552937772472651,1.5064000750663895,0.9764252949362602,1.0123556932547286
292,1456703941797064,1.6149442143593555,4.107001541737471,13.070721401835529,11.480443825640386,2.498982520389838,1.4844368470423404,0.9888371491551304,0.9951005082017237
293,1456703941797064,1.5653902717441524,4.204806292668136,12.85408235862096,10.994145260735806,2.440892732793547,1.45867728884973,1.0009604196324817,0.9794000670356795
294,1456703941811064,1.5190348922599053,4.303022016742629,12.623774961176174,10.50614346899585,2.379986149731365,1.429523856484442,1.0126061644722428,0.965718080231389
295,1456703941811064,1.4768206985326333,4.400955360656973,12.384431140200382,10.024531400013588,2.317612331492493,1.397451035696134,1.0235952769948111,0.9544920735799324
296,1456703941819090,1.4396056845093956,4.497851637610645,12.140790102191701,9.557417116496193,2.255119074685613,1.363000164741246,1.0337618190170148,0.9461203443399682
297,1456703941819090,1.4081365063813518,4.592913833109206,11.897554467974006,9.11274318826722,2.1938197460523217,1.326771935488594,1.0429564821136523,0.9409500860433059
298,1456703941841667,1.3830259028371685,4.685324909612069,11.659257016650573,8.698107502587332,2.134962808008427,1.289416553242438,1.0510502825192016,0.9392671347973479
299,1456703941841667,1.364735036215936,4.77427276169693,11.430145876311006,8.320592340593679,2.0797047390830996,1.2516216790401742,1.0579385718627246,0.941287675367585
300,1456703941842694,1.3535613972343856,4.858977142959528,11.214093458270083,7.986606963659995,2.0290872706337084,1.214098408004519,1.0635453303984532,0.9471521245609543
301,1456703941842694,1.349632730858868,4.938717758089673,11.014531873996434,7.7017474045381356,1.9840194568942593,1.1775656991179146,1.0678275404905306,0.9569213031016545
302,1456703941858720,1.3529072288696509,5.01286242381779,10.83441515023379,7.4706762782289005,1.9452646859518279,1.1427338092457766,1.0707792868477601,0.970574930703395
303,1456703941858720,1.3631799826887332,5.080893914272523,10.676206453105367,7.29702507207943,1.9134323896809342,1.1102873121264545,1.0724351510559054,0.9880124332873651
304,1456703941859720,1.3800954019256777,5.142434040692478,10.541886957497498,7.1833209678506025,1.888973943310932,1.0808682132981795,1.0728724689885532,1.0090560145302092
305,1456703941859720,1.4031650260776567,5.197263673320837,10.432981938473281,7.130939479881865,1.8721821001674388,1.0550596035264865,1.0722120702315985,1.0334558836693446
306,1456703941871750,1.4317899491288038,5.245337534940997,10.350598769394463,7.140083221786219,1.8631933147787336,1.0333702913441218,1.070617182765459,1.0608974401093019
307,1456703941871750,1.4652869609638568,5.286792457352333,10.29547056427866,7.209786189407302,1.8619924145988722,1.0162208941952433,1.0682902672808636,1.0910101260701686
308,1456703941878676,1.5029174301084762,5.321947512055993,10.267998619296858,7.3379421340351145,1.8684191776780963,1.003931886302197,1.0654676885003103,1.1233776169481253
309,1456703941878676,1.5439178185250293,5.351294393387319,10.268287290672541,7.521354935976013,1.8821763887509044,0.9967140639768574,1.0624123426583711,1.1575490438000282
310,1456703941893687,1.5875305223632323,5.375476890459478,10.296166652627916,7.755808565516963,1.9028389020473901,0.9946617929613195,1.0594045695837653,1.193051011046867
311,1456703941893687,1.6330335765722577,5.39525909324458,10.351200776407344,8.036154440783083,1.929863254504994,0.9977492723793484,1.0567318239024093,1.229400230154912
312,1456703941901549,1.6797677316757877,5.411482869862462,10.432682220858846,8.356414704942347,1.962597565405185,1.0058299349672501,1.0546776753806348,1.2661165755386283
313,1456703941901549,1.7271594887042765,5.425016068574201,10.53961577353032,8.709900743316114,2.0002918007240895,1.0186390440855662,1.0535107664405046,1.3027362672369092
314,1456703941916478,1.7747388501965808,5.436693949047276,10.670696146426005,9.089346643508428,2.0421088120190447,1.03579953179434,1.0534743378673366,1.3388247583815538
315,1456703941916478,1.8221509016670805,5.447257524789686,10.824285151530402,9.487057024748855,2.087136740775179,1.0568310962520477,1.0547768282826886,1.3739888413126586
316,1456703941917478,1.8691609478971554,5.457293528821518,10.998394024697113,9.89506775944735,2.1344033643739726,1.0811625164249326,1.0575839277375367,1.4078875160285105
317,1456703941917478,1.9156536723645348,5.4671812166036435,11.190675988172233,10.305316749866194,2.182892770754241,1.108147066027045,1.0620123956908387,1.4402412618709401
318,1456703941931494,1.9616273988162338,5.477050979541473,11.39843289579685,10.709820461967606,2.231564471091765,1.1370808177919312,1.0681259183002945,1.4708394787666377
319,1456703941931494,2.007184793762197,5.486758818167228,11.618638381667138,11.100850786796467,2.2793748065357975,1.1672234855353985,1.0759331952416136,1.4995459741210089
320,1456703941938492,2.05252123525213,5.495879357409324,11.847978731626297,11.471106114584506,2.3253003030974586,1.1978212330839222,1.085388286734658,1.5263024234327074
321,1456703941938492,2.0979117363597406,5.503718550767804,12.082911592142578,11.81387018505949,2.3683624014396805,1.228130622739499,1.0963930851781651,1.5511297273264166
322,1456703941953499,2.143696934641446,5.509345695684183,12.31974141234238,12.123152599247886,2.407652696033633,1.257442651336043,1.1088016723141858,1.5741271579770633
323,1456703941953499,2.1902683534284044,5.511642908671029,12.554709262087078,12.393806253273528,2.4423575511866153,1.285105682659013,1.1224262764736483,1.5954691364039084
324,1456703941961534,2.2380529387853905,5.509368780208383,12.784093431629705,12.62161892176113,2.4717808366640677,1.3105460589089375,1.1370445123347535,1.6153993988194126
325,1456703941961534,2.287496753623793,5.501231628538777,13.004315761335528,12.803377527251426,2.495363541842269,1.3332852830077204,1.1524075561689382,1.6342222559567796
326,1456703941976495,2.339047612407819,5.485966799283604,13.212046831451428,12.936903804484142,2.5126991106674064,1.352952902293247,1.1682488869404106,1.6522907379253902
327,1456703941976495,2.3931363400274304,5.462412122118008,13.40430144314471,13.02106006975284,2.523543477623801,1.3692945141159574,1.1842931835891428,1.669991693012383
328,1456703941984504,2.450156302433636,5.429576216466529,13.578515329841302,13.055724679721614,2.5278189999120952,1.3821745591014873,1.200264892707375,1.6877282807676202
329,1456703941984504,2.510440998881022,5.3866956832249935,13.73259569448523,13.04173849537492,2.5256117742932487,1.3915737872413683,1.2158959190184566,1.7059006043026896
330,1456703941991496,2.5742398693572177,5.333278637648791,13.864941835597257,12.980825711249347,2.517162254953739,1.3975815940007272,1.2309319350427974,1.7248853599587224
331,1456703941991496,2.641692980515415,5.269133013962856,13.974436435168327,12.875494306451888,2.5028497058240915,1.4003838482867454,1.2451369806939454,1.7450153771824575
332,1456703941998501,2.7128057695638588,5.194378873141161,14.060411441444748,12.728922623270975,2.4831716722832176,1.400247206988763,1.2582962502400004,1.7665598858370914
333,1456703941998501,2.787425410241901,5.109445080421761,14.122594338477636,12.544838804016864,2.4587200643616374,1.397501059962545,1.2702171648231388,1.7897063473028438
334,1456703942013502,2.865220525677816,5.015052085025077,14.161041590586244,12.32739912223973,2.4301555136668345,1.3925181828267112,1.280729002069295,1.814544702806305
335,1456703942013502,2.945665890650087,4.912183556073552,14.176066890002907,12.081070020833351,2.398181515609503,1.385695034146541,1.2896814989360423,1.8410548658033907
336,1456703942021953,3.0280334978757044,4.802049994350046,14.168172415243555,11.810517220957706,2.3635196053117027,1.3774325145442126,1.2969428887303018,1.869098163953243
337,1456703942021953,3.1113910372085565,4.686047349948654,14.137991050290346,11.520503800291975,2.3268864787533508,1.3681178964451333,1.3023977323994558,1.8984132357781496
338,1456703942036898,3.1946085925407495,4.565713490093183,14.086246086793457,11.215797864365987,2.2889736178405076,1.3581085120692364,1.3059447479732025,1.9286166921521202
339,1456703942036898,3.2763741959798343,4.442685176808447,14.013732469265397,10.901089503612292,2.2504296961191077,1.34771768623893,1.3074947841699391,1.9592087305535524
340,1456703942038121,3.3552186139809685,4.318657841030943,13.921320577509611,10.5809162396958,2.2118458702526804,1.33720334561541,1.3069691671884487,1.9895838117296971
341,1456703942038121,3.4295492620121264,4.195349754584964,13.80998025452994,10.25959623258417,2.1737439697342564,1.326759695550939,1.3042987561076984,2.0190463980194675
342,1456703942051902,3.497692585630761,4.074471327563519,13.680819499817138,9.941169045300413,2.136567549164529,1.3165122858251477,1.2994240290911043,2.046831589915376
343,1456703942051902,3.5579438055116213,3.957699348545787,13.535129316435905,9.629344168373247,2.100675766039973,1.3065166796162733,1.2922963651310757,2.072130303333238
344,1456703942058903,3.6086226081968564,3.8466550978329113,13.374424215798877,9.327457206830186,2.0663400866093675,1.296760814796856,1.2828804704013197,2.0941183752836334
345,1456703942058903,3.648133007897986,3.742884565098731,13.200467347755925,9.038432823341376,2.0337438645645203,1.2871710131591578,1.2711577147485382,2.1119886131081107
346,1456703942074088,3.6750250631901173,3.647838822251237,13.015270575953949,8.764753057785084,2.002984853134143,1.2776214313996581,1.257130029050109,2.124984341617138
347,1456703942074088,3.688055416222613,3.562853114909034,12.821063478547684,8.508430081302203,1.9740806970901896,1.26794652524182,1.2408239664332943,2.1324325791868146
348,1456703942082115,3.686242969430602,3.489124213801225,12.620230806145045,8.270983634191197,1.9469773915062123,1.2579558257889871,1.222294536400285,2.133774708750247
349,1456703942082115,3.6689158391577146,3.4276865590760077,12.415223673869406,8.05342476785539,1.9215605598592767,1.2474500790735628,1.2016284704472449,2.128592491495637
350,1456703942096969,3.6357463078408627,3.379388404665939,12.208453868546657,7.8562484549411735,1.8976692029476727,1.236237648762391,1.1789466731658782,2.1166275932638823
351,1456703942096969,3.5867716979364865,3.344869435074827,12.00218238745352,7.679437793722364,1.8751113531044292,1.2241500388125994,1.1544057664807452,2.097793453731887
352,1456703942105175,3.522400476638843,3.3245412402102708,11.798413004360192,7.522482050856305,1.8536808810624668,1.2110554452702724,1.1281988364709334,2.072179103081573
353,1456703942105175,3.443404092214393,3.318571728312974,11.598799993260068,7.384410032778671,1.833174566737369,1.1968694242690663,1.100555677517725,2.0400451442129226
354,1456703942112203,3.3508958998639016,3.326874220266534,11.404576844873985,7.2638393861036,1.8134084804464292,1.1815620958731696,1.0717429211044451,2.0018125349949676
355,1456703942112203,3.246299106073661,3.3491017582525044,11.216510472809519,7.159041439548531,1.7942327563549816,1.1651617214083079,1.0420644242299146,1.95804517617333
356,1456703942119174,3.1313060238642065,3.384647112183533,11.034883462384418,7.068020320679858,1.7755439973482032,1.1477548450436976,1.0118622138139708,1.9094276858586698
357,1456703942119174,3.0078310823283543,3.4326490060869963,10.85950553071768,6.988604359833705,1.7572948165470625,1.1294833816592846,0.9815181638449074,1.8567400163728311
358,1456703942134203,2.8779599490261303,3.4920051089695114,10.6897542760336,6.918546900928566,1.739500309576387,1.1105390983435726,0.951456429402772,1.8008306513215353
359,1456703942134203,2.7438968750013326,3.5613922557392512,10.524643994924215,6.855632306937586,1.7222414422171441,1.0911559805224038,0.9221465065031459,1.7425900057816128
360,1456703942141247,2.607912083803125,3.639294150901291,10.362919582894474,6.797781347463939,1.7056653951387626,1.0716010521157697,0.8941066934903585,1.6829253944126024
361,1456703942141247,2.4722907518240747,3.724036484518588,10.203170425350374,6.743148728726442,1.689982902816488,1.0521643094736002,0.8679077564719522,1.6227386081968675
362,1456703942157211,2.339284838592531,3.8138289899518205,10.043956913417722,6.690204766031661,1.6754626062666147,1.033148485063509,0.8441767301398369,1.5629068132136326
363,1456703942157211,2.2110686965985793,3.9068134946936706,9.883939998378803,6.637793673509498,1.6624223978961394,1.0148593456936092,0.8236009097538922,1.5042671862370844
364,1456703942164238,2.089699047298416,4.001116477784128,9.722002647380826,6.585163127920391,1.6512177214220791,0.9975971294313881,0.8069321004923312,1.4476054360532924
365,1456703942164238,1.9770796122316932,4.094904177270212,9.557352149654337,6.531963429282058,1.6422269253435746,0.9816495395555696,0.7949910595055237,1.393648101941913
366,1456703942171248,1.8749304837496694,4.186438009936857,9.38959456445726,6.478218552647268,1.6358341002424388,0.9672864828790093,0.7886718390924643,1.3430582572189689
367,1456703942171248,1.7847622106303327,4.274127883547643,9.218776686413685,6.424274309063148,1.6324102469992765,0.9547565133062181,0.7889454755771157,1.2964340214291186
368,1456703942179212,1.7078545244911352,4.356580748455632,9.045395103211,6.370730150531302,1.6322939493058028,0.9442847520351803,0.7968622229224043,1.254309166626101
369,1456703942179212,1.6452396094203834,4.432641574244412,8.870374832173457,6.31836115687522,1.635772844753174,0.9360719172686348,0.8135513698976141,1.217155098768807
370,1456703942194213,1.5976898037963099,4.501424118232397,8.69502171929981,6.268036059086535,1.6430670951315152,0.9302940195336544,0.8402176578490272,1.1853835538269835
371,1456703942194213,1.5657096285973622,4.562329378440093,8.520954094084837,6.220636334805821,1.6543158019742559,0.927102277390244,0.8781334170393412,1.159349428340891
372,1456703942201545,1.5495320774487302,4.615050290549666,8.350020238669057,6.176980662221456,1.6695669614110604,0.9266228797772121,0.9286256959840207,1.1393532707704737
373,1456703942201545,1.5491191424123067,4.659562012856922,8.184208592560799,6.137758176478262,1.6887711744121852,0.9289563372653011,0.9930578354422256,1.1256431169242493
374,1456703942217215,1.564166508833654,4.696098169291122,8.02555710212838,6.103472877257202,1.7117790086453477,0.9341762936470704,1.0728051594024801,1.1184155501420918
375,1456703942217215,1.5941122376635455,4.725114622644854,7.876066981013547,6.074400336037241,1.7383417194815993,0.9423277900501242,1.169224745439933,1.1178160398344141
376,1456703942224814,1.6381491618656192,4.7472434343587455,7.737624661125902,6.050556857677715,1.7681150112562136,0.9534250613369958,1.2836195890796611,1.1239386834962106
377,1456703942224814,1.6952407080321514,4.76324038321448,7.611934066372229,6.031680688172995,1.8006656165794048,0.96744897788483,1.4171978601581043,1.1368254257410106
378,1456703942232509,1.764139880008995,4.773929747945928,7.500459747397754,6.017224824593198,1.83548058250872,0.9843442457541625,1.5710283115429033,1.1564646974702923
379,1456703942232509,1.843411171748198,4.780150134719459,7.404380302409817,6.0063614032236226,1.8719791694223755,1.0040165075768206,1.74599317195886,1.182789283599742
380,1456703942239140,1.93145522470627,4.782704988151312,7.324551332446637,5.99799819252113,1.9095271646374044,1.0263295813036601,1.942739993415719,1.2156731844948316
381,1456703942239140,2.026536139906008,4.7823209673172125,7.261477842257254,5.990807925958118,1.9474532376824691,1.0511031931475447,2.1616339598630394,1.2549273709459747
382,1456703942255837,2.126811473056544,4.77961653512209,7.215296735718172,5.983270820620979,1.9850667902649908,1.078111626887249,2.402712157570132,1.3002946185672983
383,1456703942255837,2.2303649722028633,4.775081992233954,7.185770234114658,5.973729861454458,2.021676646530655,1.107083683896856,2.665641273447188,1.3514438799963038
384,1456703942262178,2.33524195645883,4.769070993027621,7.172290765775751,5.960457704661699,2.0566099069134762,1.1377042426556214,2.9496801052723485,1.4079647717893435
385,1456703942262178,2.4394869236413133,4.76180255372995,7.173897479982321,5.941733459358667,2.089230304250329,1.1696175601503356,3.2536481607831367,1.46936274918029
386,1456703942277169,2.5411826605446786,4.753371879288833,7.189303953961005,5.915926900561822,2.11895542137282,1.2024323014501568,3.5759015556793603,1.5350555449305676
387,1456703942277169,2.6384898907824845,4.743768007628685,7.216935630732042,5.881586703114318,2.1452722062638205,1.2357281453963473,3.9143174209426372,1.6043715164594867
388,1456703942284845,2.729686332749167,4.73289616980002,7.254974253421393,5.837528230025323,2.167750393086302,1.2690637182606144,4.26628805935373,1.6765506261468208
389,1456703942284845,2.813203992864362,4.7206027585741905,7.301405763083097,5.782915594201783,2.1860536213351405,1.3019855563133005,4.628726089720357,1.7507487864987064
390,1456703942299876,2.8876636164989624,4.706700862809844,7.354068302775902,5.717332422867433,2.1999481204646245,1.3340377709047722,4.998081767898421,1.8260461770134855
391,1456703942299876,2.9519053526703303,4.690994555697877,7.410697805523436,5.640836064326001,2.2093087908289832,1.3647720663970173,5.370373650494008,1.901459870728517
392,1456703942300804,3.0050147049581324,4.673300608497813,7.468969524593877,5.55399081020522,2.2141224748708312,1.3937577430264463,5.741233855028922,1.9759607246363546
393,1456703942300804,3.046342777726459,4.653466986393534,7.526534860768357,5.457877034930863,2.214488281697933,1.4205913134114119,6.105969281380433,2.0484940628892585
394,1456703942313809,3.075519927185928,4.631388204860846,7.581054378235771,5.354074904067905,2.2106150134651474,1.4449053762391084,6.459640036776905,2.1180033395646594
395,1456703942313809,3.092462329793491,4.6070181928257545,7.63022955745955,5.244623095551234,2.2028159316851847,1.466376427086345,6.797155753139032,2.1834558299328033
396,1456703942321845,3.097371475213964,4.5803815640775225,7.671836520872798,5.131954390101386,2.191501146174879,1.4847313569661802,7.11338947912786,2.243869458915329
397,1456703942321845,3.090726856726335,4.551584086535469,7.703764308464225,5.018811040139105,2.1771677669235716,1.4997524930883954,7.40330742094863,2.298339963163526
398,1456703942336856,3.0732721425616973,4.520822741519956,7.7240589205693455,4.908143815654821,2.160387722982339,1.5112811354493445,7.662111028120393,2.346067526135389
399,1456703942336856,3.045995067257473,4.488395225638662,7.7309729774141,4.802999573194971,2.1417929683508468,1.5192195905492771,7.885385859019333,2.386381813169624
400,1456703942344865,3.010101277762648,4.454708171162623,7.72301961871561,4.706402781328029,2.1220578026246786,1.5235316929383702,8.069249655448095,2.4187640855714148
401,1456703942344865,2.9669823999964717,4.420282774016232,7.69902808355265,4.621236404416706,2.101878289353295,1.524241772007651,8.210490779747783,2.4428649120039867
402,1456703942359867,2.9181787098586582,4.385755960100223,7.658197314668338,4.5501269937524755,2.0819491513766764,1.52143200436177,8.306688204924788,2.4585160012038787
403,1456703942359867,2.8653370342525006,4.351874908043296,7.6001431688796846,4.4953380999749415,2.062938886455669,1.5152381081416155,8.356305409745039,2.4657349215114195
404,1456703942360866,2.8101648254079765,4.319483030448699,7.5249347161318525,4.458675474143909,2.0454641100779933,1.505843393611722,8.35875206348851,2.4647220152010534
405,1456703942360866,2.75438171790188,4.289496513339749,7.433115811912791,4.441407055064433,2.0300643223226222,1.4934713041814744,8.314409129503924,2.4558496049704654
406,1456703942373867,2.6996702796574636,4.262871899302262,7.325709276737694,4.444200436667593,2.0171784029994306,1.4783767728392725,8.22461559777971,2.4396443612688117
407,1456703942373867,2.6476279844477593,4.240566506958838,7.204202039137839,4.467080276809901,2.0071241201996193,1.4608369328328734,8.091618504778094,2.4167641746646185
408,1456703942381867,2.5997224883984735,4.22349444300438,7.070510491814805,4.509407749461672,2.0000818154105837,1.4411418642007419,7.918491059298252,2.387971057065502
409,1456703942381867,2.5572520487636936,4.212481479413544,6.926926681723004,4.5698834932245544,1.9960832664024801,1.419586063965223,7.7090255213059,2.3541016844394576
410,1456703942396869,2.521312510931412,4.208222080043675,6.776047937244473,4.6465745982846185,1.995006519439081,1.396461198006362,7.467608037666281,2.316037293156977
411,1456703942396869,2.492771869197231,4.2112414067331,6.620694239558936,4.7369651589746296,1.9965771800036225,1.3720504637668463,7.199082481601735,2.274674680056639
412,1456703942404869,2.472253059914179,4.221864385191314,6.463818195851853,4.838028928267021,2.0003762786234778,1.3466246174543126,6.908609739735495,2.2308999461453336
413,1456703942404869,2.460125368749602,4.24019310619629,6.308412091927756,4.946321694188453,2.0058544526440243,1.3204394655536307,6.6015279166069964,2.1855663447348754
414,1456703942420087,2.4565045793900184,4.266093180789334,6.157416017976775,5.058090179494692,2.012351839539216,1.2937344471648626,6.283217792904093,2.13947718239054
415,1456703942420087,2.461261715530276,4.299189228015887,6.013630771856534,5.169393570308953,2.019122758877324,1.2667318590870777,5.958976896721325,2.093374271815708
416,1456703942421056,2.474039915901697,4.338869411109809,5.879638856957039,5.276233198393368,2.0253639644259285,1.2396362916932346,5.633904911147705,2.047932061172059
417,1456703942421056,2.4942786253161056,4.384298783931001,5.757736234196458,5.374685374493363,2.0302450103769245,1.2126339573575464,5.3128027430083025,2.0037572922338382
418,1456703942434083,2.5212438644072375,4.434441039819593,5.649876693615331,5.461031855357382,2.032939178848133,1.1858918139704815,5.000087132236305,1.961393801418945
419,1456703942434083,2.554062880091664,4.488087888546879,5.5576299196256675,5.531882004788717,2.032653514165328,1.1595566607361363,4.69972203997876,1.9213317921117308
420,1456703942441652,2.591761111426638,4.543894654957008,5.482153607513929,5.584280644783365,2.028656763764289,1.1337545922123606,4.415167337865967,1.8840205488956878
421,1456703942441652,2.6332993273287366,4.600420005994011,5.424179424784021,5.615796267250507,2.020304352385193,1.108591245281122,4.149344677550757,1.8498831828336493
422,1456703942456868,2.6776090838296045,4.656167389699523,5.3840122346985915,5.624585845112133,2.0070598436914207,1.0841531597805667,3.9046197852244764,1.8193316954536052
423,1456703942456868,2.723625149758096,4.709626108845157,5.361541797932641,5.609434543168008,1.988512591242829,1.0605103536230496,3.6827996859214727,1.792780531045058
424,1456703942464586,2.770313999434873,4.759310821510659,5.356266149900717,5.56977050450318,1.9643913749638375,1.0377199548801024,3.485142661460873,1.7706568973137047
425,1456703942464586,2.8166977881272506,4.803799174752287,5.367325988474909,5.5056562904495845,1.9345737727263441,1.0158305117892579,3.3123784561981973,1.7534064480315779
426,1456703942479587,2.8618735365074204,4.841767787094807,5.3935494924858025,5.417759678759062,1.8990909497935802,0.9948864867404835,3.1647365506720475,1.7414933781448103
427,1456703942479587,2.905027612504352,4.8720267731628955,5.433506718281059,5.307307479113489,1.8581276016510297,0.9749324440402042,3.0419809358639154,1.7353945166513176
428,1456703942480587,2.9454458737347866,4.8935526181765985,5.485571968992102,5.176026566377505,1.8120170048661457,0.9560165085048927,2.9434502717805437,1.7355875383542572
429,1456703942480587,2.9825198847626577,4.9055187092897095,5.547991438013684,5.026076278115447,1.7612314377005744,0.9381927496245067,2.8681024767465577,1.7425338909855712
430,1456703942493801,3.015749500858348,4.907322384452392,5.618952219469566,4.8599758271862115,1.7063685107588318,0.9215222330268171,2.8145628917521432,1.7566574478140982
431,1456703942493801,3.044741969677502,4.898607095634902,5.696647764743945,4.680529706798134,1.6481341436199834,0.906072595521552,2.7811753283805123,1.7783202548022534
432,1456703942501864,3.069207630710047,4.879278304333765,5.779334574311517,4.490753374966579,1.5873230341743105,0.891916134894491,2.7660554237708466,1.807797013786751
433,1456703942501864,3.0889522776522713,4.849512004935065,5.865375840856181,4.293800914776019,1.5247974984242565,0.8791265402425109,2.7671457049512447,1.845250113623589
434,1456703942516661,3.103866303451199,4.80975515926032,5.953269809097588,4.092895959313922,1.4614655392366174,0.8677745189255222,2.78227169371781,1.8907070891069788
435,1456703942516661,3.113910958753572,4.760717688370952,6.041663088382907,3.891266896211388,1.3982589778109618,0.857922699886815,2.809198337326805,1.9440423078830362
436,1456703942525102,3.1191024379633783,4.70335594196092,6.1293513379956535,3.6920871145859078,1.336112451257644,0.8496202814556597,2.845685952769229,2.00496442389186
437,1456703942525102,3.1194949096518174,4.63884780198167,6.215271231394465,3.498420799989409,1.275944003285659,0.8428979125789048,2.8895446038810824,2.0730107363209345
438,1456703942540045,3.1151638580664263,4.568559936749746,6.298488132900336,3.313174561666894,1.2186378452948585,0.8377632551160814,2.9386853941941644,2.1475491185104403
439,1456703942540045,3.1061911586169724,4.494008283447878,6.3781834634038885,3.139055039792701,1.1650296356325993,0.8341976022047307,2.9911666989254826,2.22778764754163
440,1456703942541037,3.0926531849465606,4.416813424748162,6.453644674728331,2.978532621471102,1.1158943279589302,0.8321538353994806,3.0452330644850343,2.312791480669739
441,1456703942541037,3.07461290640629,4.338652863802753,6.5242596135701385,2.833811428529399,1.0719363341101071,0.8315558744122601,3.09934451145371,2.4015059484125882
442,1456703942554032,3.0521163558111404,4.261212208716466,6.5895160822636525,2.706805672625067,1.0337815348470407,0.8322995996189867,3.1521943278031173,2.4927843599498867
443,1456703942554032,3.0251931068730005,4.186137074414996,6.6490065344102485,2.5991222408852948,1.0019706387218585,0.8342550490954427,3.202714078831872,2.585418718265871
444,1456703942561811,2.993859737854068,4.114987199024791,6.702436953040026,2.512049079488171,0.9769535324900221,0.8372695871445412,3.2500654505287145,2.6781714440896964
445,1456703942561811,2.958124999826764,4.04919387647495,6.749638096736654,2.4465487057050272,0.9590844901056187,0.8411717598278546,3.2936197373568312,2.769806283963507
446,1456703942576806,2.9179957160181673,3.9900214030495857,6.790576724147992,2.40325603411274,0.9486182971190864,0.8457756622808389,3.3329272032457955,2.8591167929512347
447,1456703942576806,2.8734831159919287,3.93853296427331,6.825364299314786,2.3824796279271907,0.9457074374170683,0.8508857550182266,3.3676797551491053,2.944951147799975
448,1456703942585033,2.8246099397800215,3.895561320957755,6.854260867758156,2.3842054710875287,0.9504004681299646,0.856302108322827,3.3976709050298473,3.0262325931962386
449,1456703942585033,2.771418914143989,3.86168474826157,6.87767200763543,2.408102419241872,0.9626416115174286,0.861826000387544,3.422756817113923,3.101975480713794
450,1456703942600059,2.7139830543528527,3.837208855242666,6.896137064465768,2.4535286508014935,0.9822714853599647,0.8672656717757565,3.4428216659895545,3.1712974094133957
451,1456703942600059,2.652417849229157,3.8221550803280984,6.910307594936254,2.5195387173338197,1.009028826667645,0.8724419078570245,3.457749872127685,3.2334282286630103
452,1456703942601018,2.586894964913311,3.816256747877708,6.920916294619456,2.6048911988245536,1.0425530498636062,0.8771930481530668,3.4674071305451264,3.2877166676451663
453,1456703942601018,2.5176567816441384,3.818963528127239,6.928738513585388,2.7080574738586938,1.0823875113503045,0.8813790485755721,3.4716314582533054,3.3336353138878136
454,1456703942613812,2.44503088140872,3.8294549242974814,6.934550136812534,2.8272325887534864,1.1279834151293222,0.8848843557881544,3.470234713586264,3.3707846284253273
455,1456703942613812,2.3694435119799278,3.8466630043944483,6.939086372247986,2.960349487510302,1.1787043789625609,0.8876195571991295,3.4630142224445075,3.3988965099718245
456,1456703942622147,2.2914310293702456,3.8693040566559054,6.94300565147049,3.1050978926353996,1.2338317793419866,0.8895219740562811,3.4497733449068875,3.4178374891474324
457,1456703942622147,2.2116483103453524,3.895918309342066,6.94686180969156,3.258948982482453,1.292571090531534,0.8905554959717513,3.430349048349163,3.4276110332228003
458,1456703942636722,2.1308730977217545,3.9249164718185243,6.951086414580562,3.419186753881744,1.3540595015036667,0.8907099772659522,3.4046438265548784,3.4283579499680963
459,1456703942636722,2.0500052828395283,3.9546316645906314,6.955981770038654,3.5829465714853703,1.4173751138366986,0.8900004310021934,3.3726586829003034,3.42035380995685
460,1456703942644670,1.9700603822545983,3.9833751872089196,6.961723884228106,3.7472609077384385,1.4815480017015055,0.8884660861155402,3.334523510869891,3.4040027484224122
461,1456703942644670,1.892156891799176,4.009494391435734,6.968373718403839,3.909111792011633,1.545573383176847,0.8861691669149954,3.2905212278618294,3.379827709678954
462,1456703942660031,1.8174976043173017,4.031430661671993,6.975894339568612,4.065489118914323,1.6084271184478511,0.8831931126738102,3.2411026217591012,3.348457795483026
463,1456703942660031,1.7473452730870032,4.047775203547647,6.9841710649616875,4.213453666768085,1.6690836785627117,0.8796399796306956,3.1868900740424744,3.3106136831965425
464,1456703942660664,1.6829932833005297,4.057320116954043,6.99303136064359,4.350203321812197,1.726536585952125,0.8756269609122683,3.1286698041604293,3.2670920998036412
465,1456703942660664,1.625732353794137,4.059102269190601,7.002261539224057,4.473140605345816,1.7798211246991387,0.8712822044446268,3.0673735555211525,3.2187501587990037
466,1456703942675667,1.57681470139007,4.052437881323497,7.011618541490838,4.579939323169662,1.8280388736191233,0.866740271300923,3.0040515316349263,3.166490082259898
467,1456703942675667,1.537417404329754,4.0369463454177525,7.0208369754972795,4.668608037129417,1.8703833259453275,0.8621376081586521,2.9398390242293804,3.1112445461135576
468,1456703942681667,1.5086067350521828,4.012562355904311,7.02963319831338,4.73754787644527,1.9061655262756705,0.8576083458606372,2.8759196013630604,3.0539627327246475
469,1456703942681667,1.4913049809489596,3.979535882492737,7.0377087527887605,4.785601749711865,1.9348383221355299,0.8532806492108859,2.8134878140814497,2.9955972255537073
470,1456703942696667,1.486260867043712,3.938419944671482,7.044754805836616,4.812091407503352,1.9560175975137932,0.8492737776002831,2.753714083719992,2.937092030731866
471,1456703942696667,1.494024290374555,3.8900466962299496,7.050457920383662,4.816838504062779,1.9694988550307542,0.8456959826643616,2.6977138702204866,2.879372052500053
472,1456703942704959,1.5149257844379638,3.8354930073212885,7.054506348361513,4.800166368238014,1.9752677953940716,0.8426433551127869,2.6465225630382814,2.8233341886746195
473,1456703942704959,1.5490610114459893,3.7760374302331616,7.056595655938444,4.7628808800674935,1.973504022066013,0.8401997120997591,2.601076908006182,2.7698399060753847
474,1456703942719739,1.5962805934136706,3.7131109509422284,7.056432825311912,4.706231253927142,1.9645774992820508,0.8384375537039982,2.5622032782063417,2.7197088168253165
475,1456703942719739,1.656185617981944,3.6482440934988225,7.053738444937788,4.631853678440703,1.949037776356666,0.8374199865068775,2.530612762417027,2.673712538298864
476,1456703942720705,1.7281290898407844,3.58301279384885,7.048246852143823,4.5417019106338445,1.9275962726036158,0.8372033328177967,2.506902849088504,2.6325681092116144
477,1456703942720705,1.8112234399125948,3.5189852035251348,7.0397043017513505,4.437969183477327,1.9011022273056792,0.8378399895507337,2.4915653134104194,2.5969304646454456
478,1456703942733918,1.9043540039917426,3.4576713708489466,7.027865510045196,4.323005751870873,1.870513333357097,0.8393810489654913,2.484999639005815,2.567383777386188
479,1456703942733918,2.0061981753728637,3.4004775485216925,7.012488982047076,4.19923632814683,1.8368624850349098,0.841878258836614,2.4875308854208846,2.544431654716542
480,1456703942742051,2.1152497548930493,3.348666615650114,6.993331287112402,4.069081371604857,1.801222296967012,0.8453850408811469,2.499430466405844,2.5284862472169167
481,1456703942742051,2.2298479430587093,3.303325772104799,6.970140397218928,3.9348855818109123,1.7646690284905382,0.8499564719545957,2.5209380488631297,2.519856450933472
482,1456703942757049,2.348210486227282,3.2653422457895407,6.942648795050989,3.7988561501845575,1.7282473657080235,0.8556483402307237,2.552282852418909,2.518735617548146
483,1456703942757049,2.4684705835040908,3.2353871900891003,6.9105680261262545,3.6630125522200143,1.6929372972809276,0.8625155520866787,2.5937029133782716,2.5251894135434414
484,1456703942762952,2.588717074714782,3.2139073129220956,6.873586964137524,3.529148969758076,1.659624131985672,0.8706102111764253,2.6454611126639795,2.5391446464809873
485,1456703942762952,2.707037100091987,3.201123348145879,6.83137584070967,3.398809739195637,1.62907255121248,0.8799796300155482,2.7078568415247584,2.560380082599101
486,1456703942779167,2.8215599931597253,3.197034499645222,6.783597318025216,3.273277481546791,1.6019054471083543,0.8906644439295072,2.7812322409447763,2.5885205101446855
487,1456703942779167,2.9305008219953637,3.201428381204855,6.7299251501802475,3.153572882150109,1.5785881361612757,0.9026969311320931,2.8659722447047953,2.6230354418994835
488,1456703942781084,3.032201854721244,3.2138963532229514,6.670070555540254,3.0404645635506546,1.5594183437665152,0.9160996153928372,2.96249829015939,2.66324383323958
489,1456703942781084,3.125170395935009,3.23385417365746,6.603816042202044,2.9344871000182606,1.5445221477633218,0.930884238557735,3.0712563656557768,2.7083260119393717
490,1456703942794027,3.2081119078025266,3.260567532283915,6.531055681588416,2.8359648900867365,1.5338558776362614,0.9470512029617268,3.192700666848472,2.757343636048732
491,1456703942794027,3.279957806317505,3.293181563291221,6.451839552221676,2.7450394228563066,1.5272137923839164,0.9645895364924237,3.3272742503999346,2.809267888525475
492,1456703942801166,3.3398874579302174,3.3307530284317988,6.366418409316931,2.661697600957656,1.5242411842897692,0.9834773126720114,3.4753877092090857,2.8630153270473424
493,1456703942801166,3.387343699933216,3.3722835806217866,6.275282955693764,2.5857992460848993,1.5244523806377532,1.0036823233183834,3.6373962847191947,2.917489923302773
494,1456703942817033,3.4220410332197955,3.416752319844086,6.179191058857358,2.5171025742927724,1.527252975832284,1.025162719394757,3.8135752370581932,2.971628943197901
495,1456703942817033,3.443965769310855,3.463145767921329,6.079176630949788,2.455287051980984,1.5319655362295752,1.0478673334888853,4.004092834751312,3.024449549576743
496,1456703942824933,3.4533677965445513,3.5104836050569905,5.976536008830176,2.3999734292188295,1.5378579315733159,1.0717354655308187,4.208980075196922,3.0750924786178673
497,1456703942824933,3.4507440590096463,3.5578391457362497,5.872791163612412,2.3507409080031887,1.5441733037189223,1.096696019916286,4.428096442676987,3.122858961592538
498,1456703942840038,3.436814258527145,3.604354330883259,5.769632925424002,2.307141534946548,1.5501604967306812,1.122665983995733,4.661091885466431,3.1672373666369937
499,1456703942840038,3.4124897753050765,3.6492495821963047,5.668850365173736,2.2687121014072367,1.55510360923413,1.149548306857793,4.907366519909211,3.2079170081158592
500,1456703942841045,3.3788373079162852,3.691829131269036,5.572253690515458,2.234983958868024,1.558349258467618,1.1772292826739008,5.1660307762595545,3.244788217028473
501,1456703942841045,3.337039007873747,3.7314826176173335,5.481597620172307,2.2054911008770173,1.5593302255882404,1.2055755928629255,5.435869489738136,3.277929579610488
502,1456703942854040,3.2883507997204653,3.7676840015665842,5.398510969738059,2.179776699379118,1.5575844057462798,1.2344312266410657,5.715313843931438,3.3075845023877206
503,1456703942854040,3.2340603483610755,3.799989115664069,5.324436744231288,2.1573981446372232,1.5527683434827533,1.263614569458446,6.002425029994092,3.334129713101816
504,1456703942861892,3.175446042991682,3.8280332800595174,5.2605856072486565,2.137930589453143,1.5446649849827159,1.292916015318031,6.294892869048846,3.358038316870943
505,1456703942861892,3.113738409601565,3.8515301160837723,5.207904160532536,2.1209690436386297,1.533185593854063,1.3220965166267387,6.5900516172151375,3.3798399591243418
506,1456703942877027,3.0500853314694627,3.870272023676577,5.167057957555584,2.106129140210611,1.5183660823777976,1.350887502246648,6.884914067867998,3.4000805571482475
507,1456703942877027,2.9855222437400966,3.8841320431891555,5.138427682556817,2.0930467356828397,1.5003582915817455,1.3789925212540282,7.176223981222359,3.4192839080713844
508,1456703942885115,2.920948188116353,3.893066304950438,5.12211578571916,2.0813765738266796,1.4794169867326483,1.4060908042008406,7.4605256293839055,3.4379172731017644
509,1456703942885115,2.85710843298231,3.8971160651147363,5.117960449924191,2.070790432405363,1.45588354169494,1.4318427439536732,7.734247747702644,3.456362782555897
510,1456703942900110,2.7945842688175415,3.8964084003124557,5.125554142867511,2.060975410292263,1.4301674711392667,1.4558971483677061,7.993797622559145,3.4748961887713743
511,1456703942900110,2.733790371735528,3.891154962614852,5.1442648046787305,2.051633106512428,1.4027270669347915,1.4778999939041093,8.235659737215485,3.4936740917180034
512,1456703942900895,2.674979651039665,3.881648656710767,5.173258387885937,2.0424803178223883,1.3740503321351707,1.4975042648462944,8.456492566245782,3.5127302398439433
513,1456703942900895,2.6182548969474007,3.8682584315082895,5.211521756469899,2.0332516212474867,1.3446371880471468,1.5143803087691505,8.65321700912653,3.5319808738456895
514,1456703942913896,2.5635861142954575,3.8514224328611815,5.257885093639391,2.0237039087344546,1.3149836298441524,1.528226057750465,8.823091060584455,3.551238425064068
515,1456703942913896,2.510832343949297,3.831639650982558,5.311043353509347,2.013622625496214,1.2855682104713968,1.5387765326777485,8.96376786263528,3.570232313142729
516,1456703942921897,2.459766976999327,3.809460047961828,5.3695770181991245,2.002829148775373,1.256841022060028,1.545812251667923,9.073337453313043,3.58863517806561
517,1456703942921897,2.410105833568797,3.7854729667095084,5.431973157255764,1.9911885269778358,1.2292152696101164,1.5491663770953865,9.150354821966491,3.6060926614269104
518,1456703942936914,2.3615373767684775,3.7602934790873292,5.496648104748622,1.9786167953555855,1.2030615489156649,1.548730522045899,9.193857642037031,3.6222548029130204
519,1456703942936914,2.3137542778468227,3.734546510593015,5.56197292116853,1.9650872763770548,1.1787049188836243,1.544459099071588,9.20337691420409,3.636807150321667
520,1456703942944921,2.2664852343157422,3.708849212567089,5.626302464995298,1.9506355019302917,1.156424706787897,1.5363720524303492,9.17894340238199,3.6494996787303835
521,1456703942944921,2.2195256292933245,3.683792761434275,5.688008447864775,1.9353625100939862,1.1364567321137558,1.5245558345036445,9.121092072496781,3.6601715327130013
522,1456703942959922,2.172765440749519,3.6599249739860586,5.745516086747332,1.919436229687938,1.1189973748638806,1.5091625271669078,9.030865415377827,3.6687695397846842
523,1456703942959922,2.1262128597301175,3.6377347065371555,5.797342879664615,1.9030905354354526,1.104208731800026,1.4904070393233606,8.909814682707994,3.675358623858749
524,1456703942959922,2.0800123659749445,3.617638348858615,5.842137032667722,1.8866214879925973,1.092224049384994,1.4685623749971755,8.759996226862604,3.6801229111631972
525,1456703942959922,2.0344563894837986,3.5999682748198505,5.87871266674523,1.8703804157759985,1.0831526981017263,1.443953098508917,8.58395887167025,3.6833574264132074
526,1456703942972927,1.9899899464483746,3.5849630387840095,5.906079336343524,1.8547638316531598,1.077084105178594,1.4169472755639858,8.38471787454048,3.68545137373148
527,1456703942972927,1.9472077230223994,3.5727593924138823,5.92346444610647,1.8402005276833713,1.0740902282731994,1.3879472513905144,8.165711721620447,3.686864598300267
528,1456703942980928,1.9068431615875066,3.563386740289313,5.930328484276894,1.8271364176225908,1.0742263233329423,1.3573796081147376,7.930739862838867,3.688098922517951
529,1456703942980928,1.869749392835818,3.5567651853064643,5.926374083201093,1.8160178092298533,1.077529955714566,1.3256845818031338,7.683882327614058,3.689666069058011
530,1456703942995923,1.8368723804221965,3.5527084792962804,5.91155033166533,1.8072738517279485,1.084018404360406,1.293305199530981,7.4294049871103915,3.69205411986224
531,1456703942995923,1.80921723347695,3.550932869415632,5.88605344039571,1.801298940933513,1.0936847745952343,1.2606764354011164,7.171655875773384,3.695694769359718
532,1456703943004025,1.787809115052941,3.551072207975467,5.850324106225822,1.7984358516231638,1.106493262906396,1.2282147190305497,6.914958159908761,3.700933727191189
533,1456703943004025,1.773650491746382,3.5526990162270953,5.805041125600828,1.7989602671158933,1.1223741135971057,1.1963081154833828,6.663504716497234,3.708006467420938
534,1456703943019024,1.7676766960475512,3.555350578630152,5.751110269957493,1.803067181422559,1.1412188423375218,1.165307458274831,6.421258578104275,3.71702121997049
535,1456703943019024,1.7707119335984807,3.5585586095177204,5.689647316816614,1.8108594166404879,1.1628762353617212,1.135518690693835,6.1918628406423535,3.727950671124447
536,1456703943026629,1.7834278911460337,3.561880564248377,5.6219544373809045,1.8223383323152473,1.1871494653215373,1.1071966464709924,5.978562809385479,3.7406332481621813
537,1456703943026629,1.8063069134325023,3.5649302847620747,5.549489670722705,1.8373967810696612,1.2137944557979485,1.0805404569631991,5.784142109274154,3.754784180382002
538,1456703943033626,1.8396113416182918,3.5674054885798805,5.473829665362766,1.8558144766118547,1.2425194797812817,1.0556907127248931,5.610873420638701,3.7700158848848
539,1456703943033626,1.8833601430199405,3.5691097942133907,5.3966262140968775,1.8772560988102613,1.272985965606383,1.0327284654099502,5.460483752964203,3.7858666766896705
540,1456703943041135,1.9373135095406782,3.5699675661693733,5.3195576841187595,1.9012725729090632,1.304810581446135,1.0116761555738325,5.334133948973999,3.8018363150980985
541,1456703943041135,2.0009657227311757,3.570030648216181,5.2442773995477285,1.927306000751136,1.3375687871415654,0.9925005686041716,5.232412328522802,3.817426410602785
542,1456703943056137,2.073546321448827,3.5694767594470465,5.172361948029797,1.9546987017915889,1.3708000956119877,0.9751178973352721,5.155342714945003,3.832183213049359
543,1456703943056137,2.154029472673469,3.568599945711511,5.1052627666433175,1.982706705215074,1.4040152176607077,0.9594008902675442,5.102407270943853,3.8457398881645815
544,1456703943063135,2.2411513749500633,3.5677941719705575,5.044264225381398,2.010517776789508,1.4367050713111307,0.9451879021057539,5.0725845232649025,3.8578553161454456
545,1456703943063135,2.333435433135612,3.567531834842942,4.990451040557512,2.0372737163457875,1.4683514081466622,0.9322934858729591,5.064402629036493,3.8684469084732975
546,1456703943079136,2.4292248092697624,3.568339368892685,4.944687248441315,2.0620963384656634,1.4984386601606672,0.9205200248756135,5.076007259947405,3.8776157482180773
547,1456703943079136,2.526721792533823,3.570772066745588,4.907608029474374,2.0841162859509024,1.5264665629060283,0.909669830840977,5.105242507638964,3.885663031513155
548,1456703943095354,2.624033235040237,3.5753898096266425,4.8796244855055,2.102503557240088,1.5519630918240557,0.8995571385959594,5.149742199180692,3.893097117400436
549,1456703943095354,2.719221063840629,3.5827347306446327,4.860940299256666,2.1164983316835917,1.57449722071581,0.8900195002060936,5.207028194651257,3.9006307079473777
550,1456703943098137,2.8103566215045164,3.5933110815580416,4.851578199565236,2.125440466658163,1.593691023613617,0.8809282027529224,5.274611616231352,3.9091679385544675
551,1456703943098137,2.895577311937897,3.607567055848878,4.851413386330776,2.1287960606936345,1.6092307215143042,0.8721974560606175,5.350092470922051,3.9197813638307983
552,1456703943101364,2.9731437190050034,3.6258782727059216,4.860210712917269,2.1261797080623954,1.6208763405157351,0.8637921544953503,5.431252994357904,3.9336790373804047
553,1456703943101364,3.0414950179196585,3.6485329016946153,4.877662642793882,2.1173713526575524,1.6284696071248599,0.8557339868905897,5.516140563319022,3.9521624069927235
554,1456703943116355,3.099300117138297,3.6757186286077594,4.90342562646719,2.1023269134696703,1.6319396264426114,0.8481056099706726,5.603137076216879,3.976576654050452
555,1456703943116355,3.145501619221392,3.7075117225956533,4.937153113222927,2.081182198779034,1.631305944519054,0.8410526024634503,5.69101273487672,4.00825601140846
556,1456703943124150,3.17934961904417,3.743868601147027,4.978523601961255,2.054250100196648,1.6266788548956124,0.834782998401855,5.77896281208417,4.0484670211807625
557,1456703943124150,3.200422895609813,3.7846206063732173,5.027262174876383,2.022011534239136,1.6182571668737888,0.8295643016780955,5.866626483413103,4.098352545756906
558,1456703943138720,3.208636240002327,3.829472941360905,5.0831543571605335,1.9851009374613544,1.6063239574878005,0.8257179755747168,5.9540875147264485,4.158878930768694
559,1456703943138720,3.20423406703688,3.8780085868818635,5.146052014025677,1.9442872880506186,1.5912409743232494,0.8236115111434311,6.041857354581472,4.2307883773240995
560,1456703943146729,3.187771553886357,3.929697561374965,5.215871880530454,1.9004516293182596,1.5734423018089971,0.823648321552183,6.130841472888575,4.314558384030345
561,1456703943146729,3.1600851997504913,3.9839113655152487,5.292587762347386,1.8545619345283262,1.5534276799811721,0.8262558304286614,6.222289638911482,4.410369920686585
562,1456703943153734,3.1222551075343623,4.039942080976507,5.376217406646104,1.8076459777694915,1.5317555498344426,0.8318721632673435,6.317730907873491,4.518085647317081
563,1456703943153734,3.0755615571882435,4.097025407505551,5.466804741367621,1.7607627980240759,1.5090355922301086,0.8409318288413963,6.418894893473805,4.637238967249772
564,1456703943162045,3.021438453791074,4.15436685290657,5.564397827325465,1.7149734381402442,1.4859203350555632,0.8538507562073844,6.527622294756643,4.767034079248604
565,1456703943162045,2.961425917115933,4.211170242103287,5.669022647912718,1.6713118778770453,1.4630953855585145,0.8710110744556688,6.645769042730033,4.906356589073707
566,1456703943176736,2.897123788964929,4.266667575540058,5.780653002613382,1.6307573302798262,1.4412679556725,0.8927460818337449,6.775109306224773,5.053793765918493
567,1456703943176736,2.8301474260490305,4.320148968866243,5.899177427633187,1.5942091615913703,1.421153493125239,0.9193259047401037,6.917242785336401,5.207663269248538
568,1456703943183731,2.762086931944209,4.370991016595712,6.024365099024336,1.5624655409924368,1.4034603874799012,0.9509443433574554,7.0735113660852,5.366049163971384
569,1456703943183731,2.6944708686110466,4.418681714313186,6.155833625782012,1.5362065954720032,1.3888729375493614,0.9877073284634547,7.244929471549665,5.526844241381355
570,1456703943198744,2.628735311498558,4.4628403389220805,6.2930220868728135,1.515982474765663,1.3780330448368492,1.0296233147434257,7.4321313919333445,5.687797943146125
571,1456703943198744,2.566198754625517,4.503231376239362,6.435172544121688,1.50220640550903,1.3715213431218778,1.0765958538795704,7.635337561412454,5.846569387687605
572,1456703943206731,2.508042813920956,4.539772257242898,6.581322739582319,1.4951525290650918,1.3698385955143095,1.128418544051986,7.85434028009673,6.000784983935923
573,1456703943206731,2.4552980468938417,4.572534917634576,6.730311795282087,1.4949580336568018,1.3733881783484985,1.1847725569154128,8.08850794770252,6.148099806901322
574,1456703943221731,2.4088337509697935,4.601741027110523,6.880799389352264,1.5016287993820208,1.3824603750364868,1.2452269991185019,8.336805664992216,6.286261341893593
575,1456703943221731,2.3693505363159075,4.627750457804068,7.031297239791359,1.51504753889351,1.39721907326679,1.3092424073442799,8.597829097209122,6.413173542332524
576,1456703943229743,2.3373748432720562,4.651042569593195,7.180210278124187,1.5349833627182519,1.41769133402699,1.3761776013856726,8.869847738510572,6.526958541862065
577,1456703943229743,2.3132552492322236,4.672190439826146,7.325884095891503,1.5611019081556403,1.4437602149809343,1.4452998928327552,9.15085322972235,6.62601284277413
578,1456703943236979,2.2971610979297106,4.691829159362958,7.466655114851094,1.5929755467272926,1.4751611939652198,1.5157983293308885,9.438608219671282,6.709054348273432
579,1456703943236979,2.28908439433858,4.710620307062209,7.600900096118985,1.6300934965559368,1.5114825075700982,1.5867993423088684,9.73069137683077,6.775156319239357
580,1456703943243756,2.28884592387168,4.729215257802627,7.727081750284771,1.6718717963693517,1.5521696375452407,1.6573839483623611,10.02453476439874,6.823764583032658
581,1456703943243756,2.296106248075605,4.748219994889465,7.843787431611174,1.7176631519990806,1.5965340532144043,1.7266056253959936,10.317451530032203,6.854695616867549
582,1456703943258987,2.3103817314283797,4.7681637791674145,7.949758543750336,1.7667667736900423,1.6437662164834494,1.7935082040585109,10.60665496303781,6.8681155915850685
583,1456703943258987,2.331065181223809,4.7894734802111065,8.043909457542844,1.8184384470289887,1.692952802383029,1.85714350235628,10.889273380267797,6.8645033522821075
584,1456703943266987,2.357450136764679,4.8124545841465025,8.125336109633174,1.8719011024055467,1.7430980377538319,1.9165887728309696,11.162367347717987,6.844602414116551
585,1456703943266987,2.388757401769383,4.837278988682028,8.193315611605499,1.9263560530848896,1.7931489685481576,1.970964149272171,11.4229556282769,6.809367668453149
586,1456703943281984,2.4241621516803336,4.86397893331376,8.247298961810124,1.980994961339369,1.8420243284855689,2.0194501585839997,11.668054387597742,6.759911883051753
587,1456703943281984,2.4628199848257926,4.892445880201072,8.286899175283544,2.035012536163848,1.888646501504732,2.06130512752323,11.894731476936329,6.69745590471294
588,1456703943282988,2.5038906776470142,4.9224328168221305,8.311876770617813,2.0876199361778323,1.9319758287573252,2.0958821192086545,12.100174786835245,6.623285181535048
589,1456703943282988,2.5465589620137568,4.95355842575741,8.322123926429912,2.1380587958045836,1.9710461931167276,2.1226449408196753,12.281771175966124,6.538713992382716
590,1456703943296758,2.5900520300081533,4.9853121006309715,8.317648308715862,2.185615707658417,2.0050004492376963,2.1411827042206304,12.437190533980752,6.44505766201099
591,1456703943296758,2.633653523869169,5.017059811701926,8.298557674331585,2.22963689453154,2.033123933430045,2.1512223358935127,12.564468261264397,6.343612094491954
592,1456703943304062,2.6767136363993256,5.048051874622541,8.265046464859084,2.2695426729995707,2.0548740736857547,2.1526383752252802,12.662078992953738,6.235639337926867
593,1456703943304062,2.7186549461760605,5.077434301627055,8.217385491620343,2.3048411255210532,2.0699040801902573,2.145459425641455,12.728994910833045,6.122357770636369
594,1456703943319063,2.7589739528658885,5.104265493841602,8.155915735414158,2.335140218579846,2.0780788744560104,2.1298706809551087,12.764723482102093,6.004935709089656
595,1456703943319063,2.7972388672980126,5.127539683319333,8.081047485311228,2.3601575645596604,2.079481877628381,2.1062120059221954,12.769321596539026,5.884487410767333
596,1456703943326854,2.8330847551672966,5.146217902037911,7.993266256911741,2.3797271704552907,2.0744119987746066,2.074971189958291,12.743385288181702,5.762070549433544
597,1456703943326854,2.8662074340452635,5.159266408264948,7.89314664905345,2.3938027093054273,2.063370918272786,2.0367722882209076,12.68801634248508,5.638684540398706
598,1456703943341782,2.896357558378283,5.165701456797492,7.7813743708564145,2.402456952867065,2.04704133634536,1.992359358718135,12.60476934080169,5.515269565406479
599,1456703943341782,2.9233361255953505,5.164638173107023,7.658775424980332,2.405877097684099,2.026257300344587,1.9425762881244883,12.495584870797343,5.392706465481478
600,1456703943342369,2.946992241617598,5.15534031886766,7.526350249688673,2.4043559784757047,2.0019681960715965,1.8883436999630467,12.362715809575956,5.271817727108522
601,1456703943342369,2.967223486013165,5.137267165285852,7.3853096282173025,2.3982795773602836,1.9751984579743027,1.830634128106588,12.208653177561363,5.153369726173168
602,1456703943356405,2.983978711529246,5.110113698747594,7.23710828709567,2.3881115842572416,1.94700532742319,1.7704467134347845,12.036056564354501,5.038076250063776
603,1456703943356405,2.997262648832234,5.073840981666073,7.083471288017989,2.374375875794554,1.918436960342677,1.7087826418142842,11.847692473696823,4.926603048504221
604,1456703943363371,3.007141318556885,5.028694488353078,6.926407843421151,2.357637721180125,1.8904929312662886,1.6466223836864975,11.646382556059194,4.819572889585492
605,1456703943363371,3.0137470920088316,4.975209412838476,6.768207606348396,2.33848448534185,1.8640888409756196,1.5849055391427558,11.43496245594979,4.717570472615876
606,1456703943379371,3.0172823529056005,4.914203140801173,6.611416121874108,2.317506651710475,1.840026382915011,1.5245137844390744,11.216250657510232,4.621146515811915
607,1456703943379371,3.018020972438366,4.846756062917374,6.458788626437506,2.295280004640973,1.8189698694674532,1.466257097936085,10.993025309015788,4.530820271521759
608,1456703943386375,3.0163069909963887,4.77418250365534,6.3132240554513315,2.272349674094859,1.8014298735484209,1.4108631460740473,10.768005899747076,4.4470796999236475
609,1456703943386375,3.012549907580213,4.697993860462494,6.177683532921121,2.2492164987757937,1.787754307401265,1.3589694838441557,10.543836215873917,4.3703787180387845
610,1456703943401372,3.00721597939252,4.61985629627959,6.0550994654317805,2.2263259337607564,1.7781268989824488,1.3111181308135536,10.323065353240194,4.301131311783132
611,1456703943401372,3.000815205374182,4.541545453539824,5.948282204828453,2.2040595624200767,1.7725725931160754,1.2677521242696956,10.10812469341218,4.239702658213559
612,1456703943402371,2.993884262058844,4.464900486475953,5.859830866700062,2.1827291268517346,1.7709689243772346,1.2292137378109669,9.901300444087296,4.1863976134735
613,1456703943402371,2.9869663062793195,4.391779223331887,5.792053637138868,2.1625728495274705,1.7730619933804168,1.1957441016420356,9.70470299235966,4.141447013462548
614,1456703943416444,2.980588957420778,4.324015555716199,5.746901319446414,2.143753772654058,1.7784854875174845,1.167483988334775,9.520235207376434,4.104992337682676
615,1456703943416444,2.97524187298813,4.263379297988912,5.725916297143546,2.1263599754129823,1.7867813242463086,1.1444756074836921,9.349561856056011,4.0770694927315505
616,1456703943423893,2.971355252129799,4.211537981578957,5.730197627354262,2.1104067386322596,1.7974208784358743,1.1266653744746946,9.194081997347931,4.057592791590914
617,1456703943423893,2.969280412510395,4.170019697880133,5.76038168497862,2.095840809507708,1.8098261426068096,1.1139076893312434,9.05490612953384,4.046340579480039
618,1456703943438896,2.969273293825949,4.14017636124197,5.81663674382204,2.0825468472179876,1.823390374484456,1.1059697470382517,8.932840082907449,4.042944218739917
619,1456703943438896,2.971481411344788,4.123147418469094,5.898669201097507,2.070356038940527,1.8374978359086314,1.1025373668598928,8.828377815814791,4.046882069128135
620,1456703943446402,2.9759345563802477,4.119824687036364,6.005738806814268,2.0590568178381647,1.8515422516825633,1.1032218235497593,8.741704924366505,4.05747963286666
621,1456703943446402,2.982539517186969,4.130819439976614,6.136680137307185,2.048407523602037,1.8649436688352095,1.107567660285582,8.672713850893308,4.073916373732008
622,1456703943461615,2.991079240557214,4.156433063499747,6.289927703005871,2.0381506964654084,1.8771634548712828,1.1150614392920668,8.621030970108308,4.0952390936590515
623,1456703943461615,3.0012170313000137,4.196632657205247,6.463542764690936,2.02802853208956,1.8877172449426824,1.1251413751643407,8.586055132380432,4.120381255220179
624,1456703943462402,3.0125064225365237,4.25103293242675,6.655241201124236,2.0177988519387733,1.89618574060387,1.1372078241460843,8.567006429870968,4.148187311353011
625,1456703943462402,3.024407116800653,4.318885794279608,6.862423150352089,2.0072507031857088,1.9022233146762257,1.150634634361694,8.562982489324096,4.177440965712957
626,1456703943476695,3.0363068969211366,4.399079042645553,7.0822059680314435,1.996218398548303,1.9055643303873109,1.1647813321793834,8.573017581662256,4.206896268107966
627,1456703943476695,3.047548803147592,4.490145558049145,7.311462006470251,1.984592594791571,1.9060270084840865,1.1790060005939345,8.596137906820793,4.235310398615556
628,1456703943483616,3.0574624047926373,4.590284063420106,7.546862041091761,1.9723270873923766,1.9035147176320748,1.1926785479531956,8.63140554516947,4.261476844746679
629,1456703943483616,3.0653977902050507,4.697392118411104,7.784924373830294,1.9594404375305845,1.8980147531839597,1.2051939706729227,8.677944640001058,4.284257584182723
630,1456703943507635,3.0707609075052966,4.809111482120807,8.022069106601496,1.9460122414225967,1.8895948725398832,1.2159852315638215,8.734946339652948,4.3026131088324835
631,1456703943507635,3.0730489785869524,4.922885358867175,8.25467671966745,1.9321745917257493,1.8783979212922517,1.2245354481933175,8.801652714355736,4.315629712350816
632,1456703943508440,3.071884800059446,5.036026266432795,8.479149673954065,1.9180998623079863,1.8646348040030423,1.2303891270045406,8.877322967418516,4.322544135894888
633,1456703943508440,3.067048837185196,5.145792375214832,8.691975442497862,1.9039862730444623,1.8485759721229853,1.2331621871443632,8.961187210867969,4.322766058284838
634,1456703943521694,3.0585081287532594,5.249469338188979,8.88978944891247,1.8900427752484827,1.8305416918732798,1.232550565837183,9.052393873766329,4.315898856982711
635,1456703943521694,3.0464411097278936,5.344454076777701,9.069436647500249,1.8764746992708532,1.8108916330949416,1.2283373167419778,9.14995672157699,4.301758648800217
636,1456703943522406,3.0312574362651863,5.428336807971414,9.228030520807307,1.863471383990172,1.7900145946465043,1.2203982427370992,9.252707018188831,4.280391094673167
637,1456703943522406,3.013611772128593,5.49897780461494,9.363008169470966,1.8511967199045596,1.768319233265909,1.208706156313094,9.359256043654335,4.252085106720941
638,1456703943537179,2.994410415753325,5.554575966424649,9.47218029657666,1.839783240743267,1.7462264479011342,1.1933337957056345,9.467972896283992,4.217382586007791
639,1456703943537179,2.974809715176054,5.593727076912558,9.553775309755418,1.8293301494055454,1.724163719525265,1.174455281922292,9.5769816897353,4.177083531534229
640,1456703943543763,2.956205381201517,5.615470243735621,9.606477221719903,1.8199054783188315,1.7025613611910229,1.1523458804756925,9.684180583600023,4.132246049133963
641,1456703943543763,2.9402120592326213,5.619321265313309,9.629457277660816,1.81155240842851,1.681850359952006,1.1273798147703624,9.787282842088077,4.084180859480227
642,1456703943558759,2.9286330125084796,5.605291796325888,9.622399134850099,1.8042995307425813,1.6624613201614935,1.1000259543913071,9.883877868856757,4.0344399467851515
643,1456703943558759,2.92342055172155,5.573893500227166,9.585516977093752,1.798174515270678,1.644823978876005,1.0708413002820263,9.971508451711601,3.984799155639312
644,1456703943567759,2.926628648582481,5.526126850591566,9.519565393046163,1.7932203317174706,1.629366854669751,1.0404622677421063,10.047759637690952,3.937234923745038
645,1456703943567759,2.9403596940828605,5.463454812589068,9.425839364369455,1.7895129532959764,1.6165167492216472,1.009593821567635,10.110354692770736,3.8938957855016527
646,1456703943581992,2.9667076011375384,5.387762381501045,9.306162228574708,1.7871793931097588,1.6066979654661697,0.9789965519577569,10.157253911751784,3.8570694837146453
647,1456703943581992,3.007699544529567,5.3013037368848765,9.162859080311168,1.7864148846673529,1.6003311768444266,0.9494718306002878,10.186752005804061,3.8291463992221426
648,1456703943583029,3.0652386008677595,5.206639185509655,8.998713245721655,1.787497961398804,1.5978318681584955,0.9218452926166365,10.197569324695378,3.8125797808125172
649,1456703943583029,3.1410493679662492,5.10656400136804,8.8169045227337,1.790802191598093,1.5996082147413193,0.8969490244735919,10.188931873193473,3.8098431395459134
650,1456703943596759,3.236628348976096,5.004031070441105,8.620929498300459,1.7968035239156748,1.6060582419621348,0.8756029319022584,10.160635722995583,3.8233851682959386
651,1456703943596759,3.3532005469118746,4.902069194515625,8.41450605266911,1.8060826337511382,1.6175661624223567,0.8585957906414522,10.113093022273787,3.8555825668533297
652,1456703943604025,3.4916833862349215,4.803698996530364,8.201466169668036,1.8193222152415063,1.6344979198710239,0.8466664659077274,10.047358433189826,3.908691113305968
653,1456703943604025,3.652658813270467,4.71184860313646,7.9856431477712535,1.837299620100634,1.657196090214553,0.8404857445433799,9.965135707140861,3.9847952013015813
654,1456703943619027,3.836354183574912,4.629271674875448,7.770760393928293,1.8608754097628677,1.6859742793211985,0.8406391790331731,9.868764475195258,4.085755928126282
655,1456703943619027,4.042632153491794,4.55847067418849,7.5603286589403105,1.8909782195730354,1.7211109844609183,0.8476113133710589,9.761187684104218,4.2131578035175
656,1456703943627086,4.27098915797955,4.50162820595669,7.357557222266888,1.9285859607999853,1.7628426560600308,0.8617716383997048,9.645900341303522,4.368254360974068
657,1456703943627086,4.520561343002261,4.460548837661828,7.165282756849114,1.974703012166512,1.8113555381164892,0.8833625899194385,9.526880084374454,4.551913388343488
658,1456703943641021,4.790136378777311,4.436613204403384,6.985917679575207,2.0303328740386775,1.866775841354369,0.9124898620132403,9.408499692025742,4.7645630702179895
659,1456703943641021,5.078169709766113,4.430745554143028,6.82141798269656,2.096445899048698,1.9291579483211145,0.949115282584761,9.295421296794558,5.0061409776875365
660,1456703943650124,5.382804584494089,4.443395267758492,6.673269276341167,2.173942161357882,1.9984707016988492,0.9930524907319745,9.19247208419978,5.2760484526513585
661,1456703943650124,5.701896413628556,4.474532376689566,6.542489249349409,2.2636101622266147,2.0745823563445054,1.0439656457600406,9.104502185078513,5.573113328860153
662,1456703943657093,6.033043054686095,4.523656693095193,6.429644702389251,2.3660827557509636,2.157245347897039,1.1013713827413076,9.03622756401282,5.895563971974464
663,1456703943657093,6.37362297748331,4.589819777538324,6.334881326015291,2.481792299136886,2.24608246887144,1.1646442404987913,8.992063484120779,6.241017375831598
664,1456703943663018,6.720842891378897,4.671658591243218,6.257964312374939,2.6109274918196115,2.340576206796707,1.2330258300441705,8.975956585569083,6.60648367738192
665,1456703943663018,7.071795678269041,4.767439486416577,6.198327681696155,2.7533946196838484,2.440062850540383,1.3056380195972834,8.991224922266237,6.98838895944441
666,1456703943678019,7.423528639563736,4.875111343962392,6.155129867494057,2.9087859414685933,2.543732593123682,1.381500311517599,9.04041514997271,7.382617502238489
667,1456703943678019,7.773121122048008,4.992367002337004,6.127312766090649,3.07635771119527,2.650636380023097,1.4595513722775242,9.125184689481369,7.7845737430215545
668,1456703943686018,8.11776944122899,5.116712163249018,6.113661426241626,3.2550198403685866,2.759699756173813,1.5386744004223467,9.246214746138843,8.189263269162161
669,1456703943686018,8.454875685850581,5.245540391647868,6.112861927115197,3.4433385649938404,2.8697434749014628,1.6177257223982309,9.403158205818219,8.591391278802474
670,1456703943701018,8.782135702274312,5.376211740020108,6.123555347709421,3.639552767111583,2.979510129174003,1.6955657007849199,9.594624841143721,8.9854760193213
671,1456703943701018,9.097620751727211,5.506131277076179,6.144385636800493,3.841603785457507,3.0876955478559154,1.7710907255629895,9.818204675004436,9.365973757451695
672,1456703943702018,9.39984733245487,5.632822904078732,6.174038886150454,4.047177633593687,3.1929832558410696,1.8432647815547252,10.07052855287679,9.727411041297891
673,1456703943702018,9.687830374096722,5.753993865333767,6.211271691828025,4.253757683959858,3.294080078927235,1.9111489464007996,10.347363191551413,10.064519627366655
674,1456703943716019,9.961116107531982,5.867586460110558,6.254927314872277,4.458685309810388,3.389751047079284,1.97392727569957,10.643736599414812,10.372369604713517
675,1456703943716019,10.219792365933987,5.971815114272536,6.303939871895896,4.659225809693647,3.478852013869027,2.030927892435315,10.954089022005805,10.64649691540318
676,1456703943723019,10.46447619867777,6.065188506691297,6.357328143448357,4.852637107303254,3.5603587371386656,2.0816386146156174,11.272444400822614,10.883022388508333
677,1456703943723019,10.69628126663768,6.1465176753841755,6.414181405027126,5.036239108849458,3.6333915563505985,2.1257169567855985,11.59259738572995,11.078760161375145
678,1456703943738527,10.916769370866234,6.214912028436458,6.473640026918495,5.207482045603974,3.697235282122967,2.162994680791277,11.908310666936986,11.231313610926376
679,1456703943738527,11.127890609930459,6.269765890179548,6.534873755577109,5.364012379979504,3.7513543357407917,2.193477194228869,12.213516442440588,11.339156670588496
680,1456703943746029,11.331915256477606,6.310738517316116,6.597060819123691,5.503734736838265,3.7954033137519505,2.2173380361856436,12.50251436532423,11.401698063450178
681,1456703943746029,11.531358493431156,6.3377304774313705,6.659371199074905,5.624867900650817,3.8292329697922907,2.2349085314402015,12.770157047105911,11.419325884423165
682,1456703943762255,11.728897539535776,6.3508589754773235,6.7209571851037655,5.7259924320526,3.8528912815747782,2.2466625606516852,13.012014149554275,11.393430085199387
683,1456703943762255,11.927279902964036,6.350434114464139,6.780953401977795,5.806087220364077,3.866618999154654,2.25319643456923,13.224507766381638,11.326400704634837
684,1456703943763031,12.129221604468405,6.336937195802056,6.838486998261174,5.864552576226815,3.870838955570631,2.2552041342832694,13.405014477398336,11.221600290615335
685,1456703943763031,12.337295058504704,6.311001195222404,6.892696996446373,5.901218278443512,3.8661385188625794,2.2534485772680286,13.551931806408403,11.083309738686182
686,1456703943777045,12.55380791852057,6.273392738781345,6.942760287885458,5.916336006801435,3.853244939641878,2.248729928025244,13.664708095292214,10.916647299663788
687,1456703943777045,12.780676656920178,6.2249943503201965,6.987920682605501,5.9105565351849,3.8329940664071467,2.241852251204993,13.743835400016598,10.72746086075317
688,1456703943784046,13.01930139171317,6.166785412405976,7.027517000863343,5.884892957781673,3.8062939010316574,2.233590059802067,13.79080571186284,10.522194329915203
689,1456703943784046,13.270450212226198,6.099820216562732,7.06100655084878,5.840672246988186,3.7740854319293224,2.2246565134466083,13.808031970259764,10.307730154754006
690,1456703943798033,13.534161097136867,6.025201872262704,7.087981441818554,5.779478493367376,3.737303690783528,2.2156750370528235,13.798736883176662,10.09121127556369
691,1456703943798033,13.809667936692659,5.9440517654668295,7.108176724931282,5.703091799817864,3.6968418623189043,2.20715589483193,13.766814234534312,9.879846934620181
692,1456703943808048,14.095355469308943,5.85747536340768,7.121470786036387,5.613426646393573,3.6535207199289568,2.1994788426572893,13.716668508849748,9.680707845036155
693,1456703943808048,14.388746768732101,5.766525999906596,7.127879287042814,5.512472802554933,3.6080649520802583,2.192882490204994,13.653038618026397,9.500517215806154
694,1456703943822034,14.686525867444788,5.672168786085747,7.127544251089328,5.402241053442304,3.5610872653969214,2.187460505184351,13.58081063201315,9.345444711756056
695,1456703943822034,14.984596667996986,5.575247168091285,7.120719928648629,5.284715417262105,3.513080565326869,2.1831643702237375,13.504824205393444,9.220910436878917
696,1456703943823050,15.278177440510435,5.476454868270412,7.107757168855418,5.161813115273883,3.4644180191124008,2.1798121138597986,13.429678756241557,9.131405753521173
697,1456703943823050,15.561928000769663,5.37631581090081,7.0890882512002396,5.0353532003989345,3.4153603437089166,2.1771022434108853,13.359547341309469,9.080337547242115
698,1456703943836790,15.830104106917242,5.275174146328979,7.065214382498623,4.907034399361855,3.366069182590261,2.174631958664139,13.298006746418313,9.0699023782581
699,1456703943836790,16.076730982194647,5.173195807478611,7.036698048000287,4.7784223327138236,3.316624968275435,2.171918651063354,13.247891025066782,9.100996487610175
700,1456703943843263,16.29578598292313,5.070382248688404,7.004161860669733,4.65094585801437,3.267047344179917,2.168423715691513,13.211173671372194,9.173166633938083
701,1456703943843263,16.481380425388583,4.966596104665607,6.9682944521413654,4.525901922891788,3.217316206343265,2.163577735999343,13.188882226097487,9.284605303359163
702,1456703943858546,16.627932946756754,4.861597465637206,6.92986255761762,4.4044680397073614,3.167391783044943,2.1568060612311073,13.181048749021135,9.432192151500596
703,1456703943858546,16.73033026520047,4.755088427242633,6.889727216144973,4.287721195158633,3.1172327609960417,2.1475537465491668,13.186699315422002,9.611581677883118
704,1456703943866305,16.784073565753783,4.646762743879777,6.848861374603756,4.176661647284248,3.0668120276923796,2.135308886996515,13.203884414971114,9.817335100438244
705,1456703943866305,16.785408813635684,4.536356943438098,6.808366237309835,4.072239800814569,3.0161299410281015,2.119623567888151,13.229749838605038,10.043092349920387
706,1456703943881266,16.73143771708814,4.4236992769007015,6.76948397470288,3.975384356495125,2.9652251686698676,2.100131904979258,13.260645285688735,10.281778311458602
707,1456703943881266,16.62020419868442,4.308753460793709,6.733604263238251,3.88703017505667,2.9141831830179417,2.0765648789094717,13.292266251479822,10.525835911934294
708,1456703943882265,16.450750627403753,4.19165515567526,6.70226153774942,3.8081446294697305,2.8631425337332503,2.04876180154155,13.319823522085153,10.767477077086578
709,1456703943882265,16.223140021143266,4.072740090444381,6.677119557142751,3.739751455017376,2.812299057423379,2.016678256005005,13.338233073185728,10.998940863819
