,timestamp,x,y,z
0,1456703940183118,0.3095986806107248,0.05304919989279024,0.08531061178768824
1,1456703940199117,0.5317543182233359,0.1757248938105703,0.10742234207161984
2,1456703940221663,0.7579964482673535,0.3001744977782388,0.12140600996488589
3,1456703940245138,0.9793930178489025,0.4216913516339616,0.12320580017426973
4,1456703940260138,1.174158713091924,0.5293184930066933,0.113080681809699
5,1456703940281140,1.3128991913095405,0.607586967918383,0.09640893001383273
6,1456703940306173,1.3691407685791337,0.6415189098372844,0.08344579887530791
7,1456703940359613,1.3296232935143326,0.6226425620725518,0.08769059177916753
8,1456703940360368,1.2004507424546378,0.5533678750382583,0.12271952776958407
9,1456703940368561,1.0079898721689182,0.4483218936015173,0.19802331569696008
10,1456703940383399,0.7947054234217066,0.33258080890993424,0.315050445298221
11,1456703940402364,0.610621616691911,0.23706077892633132,0.4649647184894026
12,1456703940425885,0.5021030394288369,0.1914462451407786,0.6295077529080032
13,1456703940440425,0.5005193406550035,0.21590263735776705,0.7855036980133042
14,1456703940486604,0.6134096068733532,0.313885934946388,0.9117593679602064
15,1456703940489394,0.820611837917699,0.468618685724908,0.9952152957901038
16,1456703940506463,1.0776196020790696,0.6451149565937048,1.0328248924177985
17,1456703940522135,1.3267705616407937,0.7982474883238359,1.0278054771858773
18,1456703940544407,1.5131725926964612,0.8853869543760935,0.9827513973292944
19,1456703940566408,1.5990867913337516,0.8802284665774371,0.8949794086999038
20,1456703940582411,1.5711700162721975,0.7835838041396229,0.7588865745060528
21,1456703940604653,1.4394243729110463,0.6274435215782166,0.5760055172865227
22,1456703940626917,1.231244225423904,0.47004629082932436,0.36838132792988004
23,1456703940641459,0.9852367839892522,0.3819602190602918,0.18771934588035258
24,1456703940664664,0.7472755913496733,0.42616865568382967,0.11283308656624738
25,1456703940687636,0.567783010553613,0.6374899833427904,0.23139228127462924
26,1456703940701427,0.49720370998378044,1.007032441917891,0.6083507392142756
27,1456703940724958,0.5775872166249771,1.476650517546056,1.2509667560390951
28,1456703940746958,0.8315005749186336,1.947905445738939,2.085473886748372
29,1456703940762155,1.2523319939644804,2.3081016192348067,2.959618593294798
30,1456703940784124,1.7998330903492878,2.4689309715797663,3.677449077910761
31,1456703940807128,2.402120519657415,2.4026061516918387,4.060268490039509
32,1456703940821906,2.9639779421572174,2.155723235403542,4.015032937338155
33,1456703940843190,3.3828985729884575,1.830698880461595,3.5836538928094277
34,1456703940867190,3.5745944848775086,1.5433953802811007,2.9480476596147462
35,1456703940881200,3.503315858182867,1.3785933191100568,2.3791408752987473
36,1456703940903193,3.2026559813910915,1.3634964095378281,2.141503206861119
37,1456703940926705,2.7711337998945735,1.467819594458534,2.388846212008992
38,1456703940941205,2.339554582839873,1.6261064680165402,3.0948734091040917
39,1456703940963206,2.0244677861723432,1.7688200314687872,4.05136636056976
40,1456703940986207,1.889000876032597,1.8464899482671626,4.937224847020762
41,1456703941002209,1.9255307131841803,1.8378119266974113,5.433257418916613
42,1456703941023959,2.063441359990547,1.7439982442260034,5.340554826788137
43,1456703941046220,2.1978633633861975,1.5786796749964387,4.659611127033362
44,1456703941061220,2.230753022060781,1.3608349317763664,3.600366976810198
45,1456703941083221,2.1105741581651785,1.1120720343109425,2.5159822642685996
46,1456703941106222,1.8544855990642426,0.8557915540566884,1.7809139933910394
47,1456703941122729,1.5433755442133754,0.6163438085313031,1.657297187039883
48,1456703941143235,1.2932012291365342,0.41853647618693146,2.2001918815602926
49,1456703941166236,1.2159420401006542,0.2882688160520094,3.237631290551833
50,1456703941182237,1.3843512505873201,0.25312720134399175,4.433354384874864
51,1456703941203238,1.8100748963034343,0.3401929337467899,5.40960889275851
52,1456703941226745,2.4396716343701486,0.569565180689327,5.883283870311246
53,1456703941242251,3.1688069873126663,0.9454900014774248,5.7606181687630285
54,1456703941263252,3.8712901174018812,1.4496413663620016,5.151728406453568
55,1456703941286254,4.436922325530944,2.0406427677260712,4.302495445951845
56,1456703941302254,4.809011055487586,2.659940247175483,3.4804917280129213
57,1456703941323762,5.007577980435979,3.2394198159310035,2.8716642718031364
58,1456703941346268,5.12240178587242,3.7063792278722625,2.532551371868323
59,1456703941362269,5.2705026459782855,3.9885123916370757,2.4066553701648075
60,1456703941383269,5.535482359285775,4.0268405612407685,2.3794928054058846
61,1456703941406472,5.922817778717527,3.7978395275087586,2.337413790938984
62,1456703941423067,6.3566688991876745,3.3324167286263777,2.208320274068185
63,1456703941443380,6.716258227211693,2.7154813149043164,1.9782717770552096
64,1456703941466186,6.888758081010456,2.0617045178741646,1.6851367879247383
65,1456703941482182,6.814118696033902,1.4792229007879258,1.3940548887609414
66,1456703941503183,6.506346252946634,1.0399478847431105,1.1656683180033942
67,1456703941526934,6.0439421732505725,0.7699046745315924,1.0320480810686088
68,1456703941542397,5.531341017877345,0.6608609071974009,0.9900012009070658
69,1456703941565400,5.048625019332315,0.6923509336752816,1.010450448751886
70,1456703941586737,4.619368435749531,0.8476799268813461,1.0556823955896157
71,1456703941602402,4.21772133370433,1.1127585909758908,1.0967318202722296
72,1456703941624002,3.8061931745742763,1.4600478646346455,1.1256937646474134
73,1456703941646024,3.3724836979413513,1.8322826471003912,1.1585544318776226
74,1456703941663025,2.940288564469264,2.142944996482426,1.2261663518837658
75,1456703941684185,2.55565746219184,2.300311999684995,1.356522760135667
76,1456703941707186,2.2684611473446017,2.245427460010735,1.5561398478407655
77,1456703941722552,2.1232983663674583,1.9830866345385383,1.7980137147896633
78,1456703941743064,2.1564410938771013,1.5876739080419084,2.02124582619035
79,1456703941766063,2.3856568129217264,1.1799709414863564,2.146157420336042
80,1456703941788063,2.7882512089028433,0.8854727197387078,2.104282782620641
81,1456703941803064,3.2814191670250716,0.791222728716741,1.8719370586915816
82,1456703941827013,3.7289451666840314,0.9170974790587576,1.487966356921178
83,1456703941848474,3.985655364076695,1.2115106883243143,1.0427151485657338
84,1456703941863475,3.9614054897255264,1.571901425350282,0.643536080151017
85,1456703941886753,3.6648456764554727,1.8804057693166727,0.3763171005612555
86,1456703941908477,3.1966904960001616,2.0407877280216127,0.281628761607146
87,1456703941923488,2.6974476326645465,2.0061778807358523,0.3523244017913096
88,1456703941946493,2.284734072497767,1.792829424263784,0.5476141103436366
89,1456703941968499,2.01629091912671,1.4770553701064442,0.8130586775070058
90,1456703941985496,1.8912883306784793,1.1732885624356524,1.0967805051045625
91,1456703942006532,1.8775606543468983,0.9965646304200351,1.3575267257526038
92,1456703942028953,1.943077467432861,1.021143623038958,1.5666983099224399
93,1456703942043901,2.0756371958198323,1.2514526246511204,1.7089555785131092
94,1456703942067120,2.284865487937067,1.6181988414303727,1.7825587686005255
95,1456703942089091,2.5882618134267825,2.002629556400158,1.7966308184657407
96,1456703942105906,2.9884231213343937,2.279557006635554,1.7643941303166117
97,1456703942127003,3.4520720623720167,2.3609187527282884,1.6968157838042874
98,1456703942148213,3.901331848706578,2.2220258907764134,1.6019300772930434
99,1456703942165211,4.224014307747043,1.9025840808347403,1.4894806648759484
100,1456703942186481,4.304491633388531,1.4870709631553025,1.3753093859155894
101,1456703942208500,4.06917080731102,1.0758089155537647,1.2807986127521152
102,1456703942226137,3.529438981098849,0.7571757007642169,1.227386056236065
103,1456703942246803,2.7971594151891517,0.5872756331526295,1.2295198887809828
104,1456703942268803,2.0559809709623624,0.58015050290415,1.2900260293223624
105,1456703942285803,1.4963835865575263,0.7093856329116832,1.4007773114651503
106,1456703942306810,1.2451610314170665,0.9195378939174763,1.5482942760973915
107,1456703942328860,1.3229274925892265,1.1435409369823795,1.7190752593149985
108,1456703942345865,1.6468961370466755,1.3215501933317289,1.8984907884134357
109,1456703942366867,2.0737603215630593,1.4175793085032853,2.0639876093090317
110,1456703942388868,2.459916238245439,1.4304975961051827,2.181973676379203
111,1456703942405870,2.709852618724402,1.394622586317895,2.217175026146754
112,1456703942426820,2.792505659847587,1.3660457833135415,2.1520636278168825
113,1456703942448586,2.726065343227639,1.3975889810735114,2.002935596904627
114,1456703942465586,2.5496025591802227,1.5139103985706028,1.819171444730527
115,1456703942486863,2.301827360827425,1.700003079624685,1.6631915739798553
116,1456703942508802,2.01472303484868,1.9083806225190671,1.5816400953129641
117,1456703942525848,1.7160328550781856,2.0794084000612427,1.584324520939303
118,1456703942546805,1.431435848805412,2.1635844288476327,1.643064657304982
119,1456703942569030,1.1842582802962045,2.1358715953998857,1.7104938797620288
120,1456703942586030,0.9965959018858188,1.9978848289230635,1.7465020666642785
121,1456703942607059,0.8929216047878314,1.7706839478790315,1.7365136289863468
122,1456703942629215,0.9002550581588633,1.4851429523129234,1.693714578037431
123,1456703942645693,1.0378946189789913,1.1756117962339043,1.6483188920977376
124,1456703942674733,1.298144014179445,0.8777430040066755,1.631235906175777
125,1456703942688667,1.6309197984225812,0.6274348211794417,1.6578499262949058
126,1456703942705928,1.948689432467966,0.4574908633730385,1.7169873394364386
127,1456703942726728,2.157791620796536,0.39110440560906273,1.7710259511024602
128,1456703942747950,2.202944791858312,0.4340591328945532,1.7701395952598016
129,1456703942772043,2.0982594903650242,0.5688536033677599,1.6758804420536677
130,1456703942787042,1.9234434285475672,0.7540197187171369,1.4822938551179394
131,1456703942809038,1.7860544932875018,0.9312076699647821,1.2224712003965217
132,1456703942825932,1.7718606103670402,1.040562967830658,0.9560681866668677
133,1456703942847103,1.9096804418078268,1.0409519302088426,0.7442926822793877
134,1456703942869043,2.1647095617056875,0.9271665603848084,0.6256677157444585
135,1456703942885894,2.4569790573749044,0.7350681484991841,0.6040801278831597
136,1456703942906896,2.6912007386139307,0.5302480948387785,0.6527229445571446
137,1456703942928913,2.7860564132128456,0.3838928178389333,0.7295384017780776
138,1456703942945921,2.699111679202358,0.3458040851296733,0.7955962152472944
139,1456703942965927,2.445847136568372,0.4256235114188273,0.8282609331790521
140,1456703942989027,2.104872317606948,0.5896109988680557,0.8248451629457847
141,1456703943012004,1.7978351811391768,0.7740626283047347,0.7972280487866203
142,1456703943027623,1.6428546207870687,0.9098894234342267,0.761504685026777
143,1456703943048136,1.6995012219913361,0.9481300193202663,0.7283285810848462
144,1456703943071353,1.934690716647963,0.8757223243178934,0.6984924684450149
145,1456703943096172,2.230918380174191,0.7158566144352975,0.6645840226441255
146,1456703943108336,2.4352743459220556,0.5149067010365296,0.6161522203947907
147,1456703943131931,2.425069539048883,0.32352308610122305,0.5454698542786117
148,1456703943147728,2.158273433771628,0.1805619795998639,0.4523956178215846
149,1456703943168735,1.6878987572200719,0.10563182794845417,0.3472642442680673
150,1456703943191736,1.1396223461302755,0.10094147526456755,0.2503090682615744
151,1456703943207731,0.6674376607106031,0.15846579251022122,0.1868344358828069
152,1456703943230742,0.40582416286226325,0.2667917637288764,0.17946600854523354
153,1456703943251970,0.4317477150113721,0.4139389674627638,0.24059292045901925
154,1456703943267756,0.7431562340230521,0.5862156830958146,0.36815291279685824
155,1456703943288986,1.256961774832099,0.7663303092852407,0.5462172335750215
156,1456703943312147,1.828064953336807,0.9346224325749835,0.7494192059060324
157,1456703943328154,2.288420051198276,1.0746638921232996,0.9486362697982269
158,1456703943349369,2.498763177347854,1.1800600421388026,1.1157581787845605
159,1456703943371371,2.396636546956185,1.256672712348236,1.2275026381081713
160,1456703943387371,2.019884438100719,1.316802515763396,1.2698077730301423
161,1456703943408377,1.492615566258574,1.3684348786323308,1.2433088214652888
162,1456703943431893,0.9786320787569751,1.4082433894212605,1.1673919684088545
163,1456703943447401,0.6229210914144622,1.4256188790138715,1.0785694738987794
164,1456703943468619,0.5046236785214059,1.416533288607938,1.0213060972203913
165,1456703943491665,0.616475833042282,1.3980478608424947,1.0344603719755876
166,1456703943509405,0.8745005687090335,1.4132401999745603,1.1392275139633994
167,1456703943529414,1.1528862448354666,1.5211398157853149,1.3327235978292267
168,1456703943551758,1.3325833919595622,1.77307205442968,1.5882261352371974
169,1456703943568759,1.3477293854602221,2.184063431538195,1.8617234742705064
170,1456703943589026,1.2128324398539716,2.713165394995532,2.103797375846372
171,1456703943611992,1.0181502591809781,3.265226928928402,2.2737701963934573
172,1456703943628055,0.8922462704570184,3.717757555316168,2.3509753857388502
173,1456703943650124,0.9453809184762497,3.9647064027492926,2.3398222987263813
174,1456703943671018,1.2167435953641939,3.9608409930681776,2.270830258534632
175,1456703943687019,1.6478119779849862,3.749983016154313,2.2027222880683253
176,1456703943709045,2.0956331418791176,3.4660452265248973,2.2255157135970487
177,1456703943731560,2.3864303916277705,3.302271254128842,2.454583297616791
178,1456703943747030,2.392585200189037,3.4501305327702667,3.0018892755540256
179,1456703943768037,2.100551238939965,4.020288696252689,3.9217256365428184
180,1456703943792050,1.6359631356140443,4.974863205100451,5.150700051167964
181,1456703943809050,1.2313485300111677,6.10983749458107,6.479108577389884
182,1456703943829254,1.150089630837708,7.112101630181409,7.5853355590750455
183,1456703943851599,1.597679618276087,7.677454824094241,8.133637754082937
184,1456703943874264,2.6498131028941687,7.637700610116314,7.897528485248691
185,1456703943888552,4.215466262031157,7.034142914191382,6.853048890400977
186,1456703943911602,6.044356163852374,6.0995852422290175,5.200263765292699
187,1456703943934079,7.783724444139865,5.157202871486056,3.305842855440402
188,1456703943949294,9.078687406452824,4.487394757768453,1.59297321185672
189,1456703943971337,9.686906397742801,4.228989615192177,0.4216154099868358
190,1456703943988321,9.558147660977806,4.358114627706399,-0.0012554238786821222
191,1456703944010298,8.837979975053695,4.739551907296217,0.3408189972667539
192,1456703944031819,7.792786548504477,5.204835971956537,1.2899885771002937
193,1456703944048326,6.693585466124582,5.608686817371761,2.570857815630165
194,1456703944070327,5.715054591051362,5.848952985614045,3.869084423196933
195,1456703944091368,4.896154116650875,5.870024883758428,4.912635442493238
196,1456703944108328,4.174213631297678,5.672659228571669,5.535441991982963
197,1456703944132377,3.464145153524143,5.327658659035101,5.703433186581226
198,1456703944151388,2.7350686518954976,4.96873744126099,5.4936110328558465
199,1456703944168354,2.047361222450991,4.745971644335637,5.039139865141994
200,1456703944190355,1.538327474791849,4.751891049306184,4.471880215938349
201,1456703944211362,1.3664490769625834,4.962045879292311,3.891152434413244
202,1456703944228408,1.6383113235761408,5.234117839474476,3.365036537378769
203,1456703944250636,2.34880624727193,5.376905408504381,2.946961418993793
204,1456703944271412,3.3604109791519763,5.253203161073313,2.683474504885224
205,1456703944293392,4.431264312165417,4.8544511891037425,2.601942520085358
206,1456703944310430,5.282334599171127,4.3022784557267615,2.687920352799255
207,1456703944341409,5.680530863374651,3.780084786064467,2.874027542505829
208,1456703944353411,5.510427784303129,3.4391210414214672,3.0558277246364605
209,1456703944370411,4.809877310392552,3.330633198680436,3.1312097899030737
210,1456703944391661,3.7542059494233637,3.3926766789299623,3.04316664500621
211,1456703944413413,2.5931373315864095,3.4894793239313056,2.802573817999193
212,1456703944430615,1.5673181086153831,3.479199332911352,2.4783871333503416
213,1456703944451560,0.8400508766139795,3.2776153229272573,2.1605957916848237
214,1456703944473512,0.46743585844929264,2.8904414029369847,1.9159675133436607
215,1456703944490539,0.4085374521667382,2.402507031668373,1.75991571975111
216,1456703944511651,0.5613748945182256,1.9320083729210416,1.6579850061753298
217,1456703944534115,0.8054262505350532,1.574347441935512,1.5531609012386507
218,1456703944549956,1.0351198047528685,1.364214927078138,1.4009606507239658
219,1456703944572064,1.1779238609326466,1.2727100627868408,1.1919693404784193
220,1456703944592958,1.199662417855674,1.2350957935155333,0.9517216313908374
221,1456703944618090,1.1030467997142301,1.1886507901038477,0.7225518441520261
222,1456703944631472,0.9226205131409442,1.0992245840184862,0.5412525742156765
223,1456703944654091,0.7153322935545694,0.967014972065728,0.4253807645573928
224,1456703944669987,0.5456086071578432,0.8156908628406151,0.372758940837915
225,1456703944692091,0.46721831865973046,0.6756821814649364,0.37010618426448033
226,1456703944713983,0.5075333231081653,0.5713877952082458,0.40294082366173045
227,1456703944730510,0.6596395571735018,0.5166975508330699,0.4607108981713918
228,1456703944751018,0.884635700697443,0.5172687041290427,0.5362016977872347
229,1456703944774016,1.1228219867217104,0.5746885808113749,0.6227497270770026
230,1456703944791018,1.3097867738298954,0.6888180980190158,0.7132191963025639
231,1456703944812020,1.392682217700318,0.8583200653115307,0.8013257643371013
232,1456703944834035,1.3436020080804953,1.0812951387652745,0.8829644014142805
233,1456703944850050,1.1684581325726988,1.3564077286718217,0.9560068736250021
234,1456703944872050,0.9087394102973265,1.6826553759513772,1.0197518755732928
235,1456703944894051,0.6327826755702622,2.0561370173219213,1.0756712299673383
236,1456703944911052,0.4168341422937159,2.4644667291070714,1.128736253137563
237,1456703944933407,0.32233920048690123,2.881409505868326,1.1869461318580066
238,1456703944954041,0.3787567303707247,3.2646772189737274,1.258000110698008
239,1456703944969921,0.5784716085938545,3.5591941289525706,1.3445001851366252
240,1456703944993079,0.8845080812325413,3.7072541828603396,1.4399578413753438
241,1456703945012920,1.24611706601968,3.665574226163664,1.527353034934298
242,1456703945038715,1.6144559602716353,3.4259584407388632,1.5816829634808016
243,1456703945053507,1.9520035862144363,3.0309190820214895,1.5777409676640415
244,1456703945073794,2.234087481294935,2.5725205850550994,1.5024376546476295
245,1456703945090508,2.445058841951696,2.1684804647692055,1.366878333414891
246,1456703945113511,2.5728136233166876,1.9235183737706145,1.2105066384384777
247,1456703945133817,2.6061409953791284,1.8950911723189396,1.0924202433259307
248,1456703945150330,2.541162662630167,2.0803851227903998,1.0728718487764561
249,1456703945174330,2.399779613224243,2.427328506956058,1.194164407875615
250,1456703945193548,2.250655830473599,2.8585669657085173,1.4689805435380878
251,1456703945210332,2.2119265757850983,3.294456546197099,1.877919172105591
252,1456703945238770,2.419150249990412,3.6687527836657363,2.3737203261634443
253,1456703945253561,2.9632720144938633,3.9389773086860855,2.8903433984230196
254,1456703945270561,3.827870291599117,4.094250571517195,3.3568952501993556
255,1456703945293562,4.865076979393666,4.158441117014795,3.715104508534296
256,1456703945317563,5.834612261222155,4.183594041883306,3.9355022427922637
257,1456703945330857,6.495710512415909,4.232266054826729,4.025558664221606
258,1456703945353873,6.708470077524585,4.355337009078314,4.025107961572052
259,1456703945373875,6.491561655843112,4.576794425693438,3.9902004185059132
260,1456703945391116,6.004983094862156,4.891499255517796,3.972541065195285
261,1456703945412876,5.4679500026460905,5.2690383182125275,4.002336534043357
262,1456703945433818,5.057738296139417,5.652722075323157,4.077674006763413
263,1456703945450107,4.8429645812277515,5.9568400535734645,4.161883235270199
264,1456703945473108,4.7814888866556755,6.080616953951935,4.194694554681555
265,1456703945493327,4.774759148731283,5.949010371183874,4.121628188461563
266,1456703945516326,4.739986597469364,5.560939548518269,3.9302586542379374
267,1456703945533995,4.6572621182339144,5.006376023656722,3.66619496057731
268,1456703945553640,4.570376507501487,4.429862507604135,3.4090424972569804
269,1456703945576648,4.5486392991622635,3.958601382365997,3.219568523082596
270,1456703945593354,4.6357040726808885,3.642148201262234,3.0964299766169665
271,1456703945613356,4.816757856829165,3.4423985851877457,2.9775432176738743
272,1456703945636881,5.025459223266459,3.2753365984689373,2.7882310203458585
273,1456703945653390,5.186036024373691,3.0721446649361717,2.5021442233851987
274,1456703945673605,5.259595153659235,2.821802619779397,2.170538059555082
275,1456703945696391,5.261157725586864,2.5772888643323766,1.8986764788503245
276,1456703945720392,5.237883260081329,2.4305287226535297,1.7856672245238243
277,1456703945733981,5.226114405501602,2.4709051657048198,1.8668054986636597
278,1456703945757191,5.215556972066394,2.7414869029709314,2.0921491652367274
279,1456703945773191,5.142922172745855,3.2072902167790254,2.350892013655497
280,1456703945797194,4.921194696184357,3.751515391205859,2.5254585897228
281,1456703945817194,4.489430570509177,4.208822579489391,2.5444871466806434
282,1456703945833488,3.8524752994909006,4.426146337098427,2.406718707258525
283,1456703945855282,3.0848522738977016,4.323253307118245,2.1674194932567747
284,1456703945876586,2.298268313990646,3.9224640508986703,1.9021567415678644
285,1456703945893284,1.596418257126517,3.3331120588771164,1.6722470940608087
286,1456703945915286,1.0439059966927982,2.7007799870789952,1.5076430014621214
287,1456703945937079,0.6605170294534424,2.1486757639849494,1.407660230801914
288,1456703945953613,0.4345451305245632,1.7391244852138963,1.3508484747191567
289,1456703945975631,0.3411141277614362,1.4684866932862883,1.3061843471875707
290,1456703945996598,0.3541965619756011,1.2896474453331914,1.2433696214771643
291,1456703946013599,0.44892515346225464,1.145076880571264,1.1429089616314045
292,1456703946035665,0.5978513440813689,0.9947458688736626,1.004255885480952
293,1456703946057009,0.7677882517572846,0.8308352826736053,0.8471087190413156
294,1456703946072927,0.92249265172695,0.6774233032250848,0.7027979244840342
295,1456703946094928,1.0318311529228388,0.5768792009748301,0.5994393734951239
296,1456703946115935,1.0825384449235391,0.5683480560478837,0.5498766440033177
297,1456703946133486,1.0829335507940294,0.6675315436854186,0.5501587397290558
298,1456703946154958,1.0567546988937349,0.8575584977636111,0.589062656593549
299,1456703946175959,1.0280221866394326,1.0960379998490162,0.6612617310257295
300,1456703946193979,1.0047860737704937,1.335297742298944,0.7739543440528769
301,1456703946214963,0.971265231033168,1.5456749973302266,0.9412416909746703
302,1456703946236979,0.8944986723956256,1.7297022168122609,1.1689697029764468
303,1456703946252991,0.7443600981188085,1.9195970196852157,1.4393714576702012
304,1456703946274990,0.5180750494088204,2.1589797440169645,1.7061135291922032
305,1456703946295991,0.256861932251055,2.4771354774769008,1.9058386699556424
306,1456703946312993,0.044913308776387544,2.86698975629689,1.9834342387322228
307,1456703946335534,-0.01227787608115559,3.276478507926434,1.9190586664315
308,1456703946356446,0.17475915769752287,3.6189482407200972,1.7418210521033268
309,1456703946373220,0.6384048173620619,3.8024546493665845,1.5215255913177637
310,1456703946395221,1.324967861479505,3.770519417177262,1.342183754188903
311,1456703946424436,2.0928968344821746,3.539281925167874,1.2707227715562595
312,1456703946433704,2.7462542954420814,3.2113414127027724,1.3357619546790709
313,1456703946455630,3.0979787885933368,2.950550428743085,1.5244089475383555
314,1456703946476601,3.0416489924075685,2.9189874039838193,1.794325145701399
315,1456703946493597,2.601328694320551,3.2016898528256785,2.0913105068481688
316,1456703946515634,1.9350230988266297,3.7588533131834176,2.3644132386839023
317,1456703946536674,1.2880255704309036,4.434676092848416,2.5770623467387117
318,1456703946553669,0.9155539090188534,5.02166793841693,2.715037105641512
319,1456703946575642,1.0043641716928748,5.3486655520718696,2.788900955531984
320,1456703946596645,1.6173079244236317,5.348283291239349,2.8273175802149844
321,1456703946613680,2.673149782854138,5.072283829104538,2.862826670534307
322,1456703946635944,3.9661524471472416,4.654112044660759,2.918337778437833
323,1456703946656807,5.224718250439048,4.2468844348535235,3.0030932705920272
324,1456703946673804,6.197275641588372,3.9735069650281116,3.119472393052498
325,1456703946703804,6.735784729642584,3.9103590708086093,3.273335850417406
326,1456703946716836,6.83800699940005,4.100260757583931,3.4787756587334404
327,1456703946733612,6.625906743160952,4.570652014735753,3.7533567331452025
328,1456703946755656,6.273522961126594,5.330184747338573,4.105024142483115
329,1456703946776883,5.925261962190005,6.335154401485625,4.514356793482583
330,1456703946799769,5.644176948400614,7.44779389505645,4.9213137259885835
331,1456703946815661,5.407763819181407,8.428427328988437,5.2317986950835245
332,1456703946838606,5.146154243348356,8.99107548336495,5.351656100511262
333,1456703946859897,4.800417585486256,8.909481199470244,5.232021883320232
334,1456703946877653,4.367859129285114,8.118375932840728,4.894178313116896
335,1456703946898619,3.90753151368868,6.749504988793117,4.4155045188386985
336,1456703946919817,3.5053253049089736,5.08150548607379,3.8893023937566022
337,1456703946935855,3.224201721111451,3.435890286024242,3.3887726389253388
338,1456703946957958,3.071536030800064,2.0765958433058835,2.9545294005786227
339,1456703946978991,3.0013951015597384,1.1548444702608418,2.6015862941806134
340,1456703946995797,2.946190912934424,0.7058554527167874,2.330237333481042
341,1456703947019931,2.8543947534608733,0.678064480708736,2.1315185966508943
342,1456703947039512,2.7107550728607883,0.9704590962297848,1.9886040014079482
343,1456703947055027,2.5312520402582326,1.4624750912607678,1.8788821957173563
344,1456703947078029,2.3431605334729433,2.0321091816579835,1.7785378511212655
345,1456703947099070,2.167989391827549,2.565549478403417,1.668103121645933
346,1456703947115030,2.017631462245757,2.9651126650539865,1.5365596927986378
347,1456703947138552,1.8993038453726314,3.161249182134501,1.3829119886961985
348,1456703947159065,1.8175426367711036,3.1278406812455404,1.2156428083004154
349,1456703947175067,1.7686693564407476,2.891531495324954,1.0505916711102667
350,1456703947198068,1.7350532753746588,2.5242792336703817,0.9076410516588658
351,1456703947219069,1.6889951103115997,2.118016961203281,0.8069089191550971
352,1456703947235487,1.6072391500715981,1.753316689928261,0.7645456104868499
353,1456703947259972,1.48682209186828,1.4776053757987542,0.7871936479370141
354,1456703947279183,1.350724229999665,1.3001521292066405,0.865654995988771
355,1456703947295974,1.2387825595481001,1.200162302605367,0.9719549997983999
356,1456703947318975,1.1891666814278512,1.140209878258358,1.064758673064026
357,1456703947339797,1.2210538649149625,1.0798351528580858,1.1031492536204808
358,1456703947355289,1.3273628140750782,0.9874990638505776,1.0621985367383313
359,1456703947384625,1.479842465568724,0.8496635769657117,0.9420212678818296
360,1456703947399625,1.641971362271566,0.6749518783611334,0.7665075090705714
361,1456703947415293,1.7820407413092791,0.4918961589702226,0.5740910471436578
362,1456703947438814,1.8806832704361676,0.340937577386282,0.40596713851210453
363,1456703947459362,1.931700436332029,0.2631822669472272,0.29636349437077897
364,1456703947475626,1.9385346366069562,0.28894660192114163,0.266733727223566
365,1456703947498542,1.9089872477356273,0.42906240564715054,0.3232900829990246
366,1456703947519620,1.8492618203331823,0.6717518065833447,0.45671270663704366
367,1456703947535809,1.7583673283478967,0.9869371915861553,0.6440214219167817
368,1456703947558829,1.626046870428466,1.3373308024298256,0.8534505724043825
369,1456703947579565,1.4385125278386577,1.6919881918726682,1.0522399865092351
370,1456703947595571,1.1931123972941273,2.035316952777642,1.2153622031829083
371,1456703947618568,0.9163013044923399,2.365630807069414,1.332167684134289
372,1456703947639675,0.6735509140880525,2.6832732231044916,1.4083976454832638
373,1456703947669962,0.5602153565277079,2.975992643702484,1.462261755138249
374,1456703947678663,0.6701445835181477,3.212599787672446,1.5147983428423355
375,1456703947699665,1.0505641082302566,3.3514297891530065,1.5770055770126317
376,1456703947715924,1.6620057034575404,3.3605502663596685,1.6392399364372823
377,1456703947738654,2.365665449391612,3.238480103383059,1.6700663582375754
378,1456703947760977,2.9537834371296086,3.022375059140463,1.6291326857354385
379,1456703947781776,3.2216460458450347,2.7766587416327604,1.4911759620957044
380,1456703947798765,3.0582652118568032,2.5667660944447244,1.2699629969301205
381,1456703947820766,2.5168900803288343,2.433552619777031,1.0281688564897395
382,1456703947835562,1.8270798497848542,2.385422890935445,0.8651066853139852
383,1456703947858579,1.3313537029018478,2.4136918067470052,0.8854443274373912
384,1456703947880581,1.3628432989474513,2.5190001075556605,1.1611136992138522
385,1456703947901954,2.1084252324845503,2.7266168925799517,1.7008270238718874
386,1456703947918582,3.5114805520870864,3.075561940929397,2.438680556894829
387,1456703947941040,5.258026045968613,3.586409665277396,3.24857203168382
388,1456703947957986,6.863225842812301,4.230011249821204,3.9836457873906337
389,1456703947977896,7.837146785358973,4.921180787457617,4.528639296031917
390,1456703947999897,7.87050806576273,5.547858459185604,4.844099576033347
391,1456703948021938,6.963160033618989,6.02685013710955,4.9837291286532235
392,1456703948038891,5.436520701757281,6.359761468246312,5.0779660262776565
393,1456703948059934,3.8212353727272084,6.6527320834453505,5.287061117143546
394,1456703948088940,2.6653378409244013,7.071075222305383,5.732006783249391
395,1456703948097936,2.3383179984700546,7.733886401939561,6.421548457023755
396,1456703948120936,2.9048895936179084,8.602257433191994,7.210330508176245
397,1456703948141893,4.116207974430682,9.440080524822072,7.827098905108341
398,1456703948158887,5.523554422049628,9.894956586709805,7.9815932785334835
399,1456703948180871,6.668095349216095,9.668880071702073,7.504378669540888
400,1456703948201903,7.260351376203033,8.68050908872531,6.439011613038402
401,1456703948225886,7.265410408803238,7.119742433437441,5.028429924341395
402,1456703948240853,6.864615812207605,5.365547164550208,3.6058832490664616
403,1456703948261915,6.333729058124501,3.8237629534657795,2.460117562654351
404,1456703948278913,5.909451617300623,2.7783371839489335,1.7492200718489546
405,1456703948300911,5.701192244228569,2.321887580818777,1.4913664950170662
406,1456703948321911,5.671523201372244,2.374585801038982,1.6070425770971664
407,1456703948338770,5.679020718960422,2.755861243692304,1.9676717752041708
408,1456703948360014,5.557047624344584,3.261163094672771,2.4258851395475496
409,1456703948381016,5.193782758094193,3.7132245827279373,2.8337960995536604
410,1456703948398017,4.581683723894939,3.9855900269179356,3.0659413834694154
411,1456703948420017,3.8173425802632277,4.012593523443624,3.048865095374621
412,1456703948441859,3.0553074334424895,3.794541189960504,2.781300978856803
413,1456703948457861,2.4423473141575522,3.392394141888244,2.328995617649936
414,1456703948479862,2.0651618181774305,2.9038909502071384,1.795777094856013
415,1456703948502968,1.9308559447102798,2.426507339031914,1.288177226239877
416,1456703948517967,1.9791218782147675,2.0251053187631447,0.8901275068789621
417,1456703948540659,2.112666814595972,1.71935242696999,0.6516713072549462
418,1456703948569941,2.231396576189515,1.4923408933769136,0.5858453061482516
419,1456703948578676,2.2605059920424546,1.3106773599328407,0.668398297300383
420,1456703948600677,2.1671453889819645,1.1441100187160318,0.8415226292820708
421,1456703948621996,1.9634246612004345,0.9768757030490366,1.0264454683511335
422,1456703948638484,1.6961573485919041,0.8087548613276161,1.1460626051838527
423,1456703948659994,1.4266610386793748,0.6487347496111978,1.1508039792580314
424,1456703948680996,1.2073103208683498,0.5068486844125386,1.0358753589465455
425,1456703948697999,1.0641064737918637,0.3892504370725406,0.8409639382995403
426,1456703948719997,0.9930247136633579,0.29841017131871245,0.6327290599089771
427,1456703948744025,0.970723867912841,0.23682415557237121,0.4791874113276026
428,1456703948758069,0.9716645242613535,0.21107123923579676,0.4277651935573526
429,1456703948780033,0.9807856190185249,0.2336628542513312,0.4949302767444966
430,1456703948803034,0.995431954998322,0.3216073827544642,0.668660458615688
431,1456703948818035,1.0178171558770277,0.4917544327513143,0.919423477728697
432,1456703948841936,1.0450922017880846,0.7536300660911831,1.212703585257682
433,1456703948863208,1.0651239963877752,1.101323727912618,1.5168566811799076
434,1456703948878207,1.061229579515914,1.5075019113360661,1.803968081103937
435,1456703948900208,1.0217957083017841,1.923686018890493,2.0467504635801173
436,1456703948923210,0.947945285414779,2.2893838307011625,2.2178098311963965
437,1456703948939298,0.8562315603001709,2.5481570940986784,2.295698391755114
438,1456703948960094,0.7775466117529112,2.6644275431859334,2.2759052616341613
439,1456703948983094,0.7525435533964951,2.634505531282012,2.1793456205177657
440,1456703948999096,0.8209817499156961,2.488577312267895,2.0509234434718606
441,1456703949020096,1.004318497087854,2.2834502270537196,1.9466470344519682
442,1456703949058317,1.2882133795459667,2.0871111979634063,1.9150684751840112
443,1456703949061348,1.6173866153039238,1.9577508133496122,1.982296540482853
444,1456703949080312,1.9124547901571545,1.92338028894083,2.147641635131463
445,1456703949103313,2.1064834505657113,1.9713637570627307,2.391179857566957
446,1456703949119314,2.1847958449551648,2.056606341814214,2.688671413700931
447,1456703949140326,2.2051965807057807,2.1313464795641703,3.02536199240855
448,1456703949163335,2.2829685820934618,2.188912604497276,3.399211986942745
449,1456703949184624,2.541903677378699,2.3003574049277504,3.8086438042498627
450,1456703949201337,3.050809837125881,2.614311015813731,4.231293086916739
451,1456703949222704,3.7776776100373506,3.300286282971124,4.6113929223059005
452,1456703949244354,4.592955302852895,4.449058467437436,4.872095892800418
453,1456703949259397,5.330754851817195,5.982398641335683,4.952258120395042
454,1456703949282684,5.878119545754402,7.635188843556467,4.847026794666
455,1456703949304615,6.235029158698251,9.03655348473146,4.624228278426709
456,1456703949319613,6.5000037135616475,9.852122079165753,4.400725305555659
457,1456703949342409,6.786744999713037,9.907735630958687,4.287780147539546
458,1456703949364438,7.129500996015216,9.233758163473432,4.336115167410983
459,1456703949381421,7.445513913580562,8.029353888430808,4.513219313259449
460,1456703949402456,7.580450503500528,6.588189117091595,4.723317842259544
461,1456703949424421,7.400967728201984,5.220489646413964,4.851573344288551
462,1456703949439429,6.869627666766873,4.180402956127332,4.80410891798631
463,1456703949462439,6.061792709290261,3.6026046010334727,4.530104673261097
464,1456703949484441,5.13182997677455,3.466483265509271,4.0308770345724705
465,1456703949499447,4.263041271878648,3.6099871576392135,3.362986199515624
466,1456703949522725,3.6278855086128856,3.795632915740073,2.6317888924504245
467,1456703949544652,3.3602089334128555,3.8042067086772775,1.9676123993435382
468,1456703949559666,3.5270475634817497,3.517908535118614,1.4871438420802516
469,1456703949582746,4.097672688801463,2.960193685319278,1.2562660847058111
470,1456703949604678,4.9276567272316125,2.2780846450815098,1.2722041596969433
471,1456703949619683,5.779556544894515,1.6757707541485776,1.4710890744028475
472,1456703949642480,6.383474290328462,1.3280982690475998,1.753442670958088
473,1456703949665685,6.518754593811332,1.3105425447415304,2.014696016906926
474,1456703949678875,6.087575365210429,1.5738377730526203,2.1707795717618374
475,1456703949702956,5.151213182535007,1.9712723924258884,2.174737315009113
476,1456703949724892,3.9097136081459345,2.324408161272271,2.024619483760013
477,1456703949739692,2.6296242527161318,2.4970449160915966,1.7627622710693724
478,1456703949762705,1.5522136083417841,2.444245369039561,1.4634029771966264
479,1456703949784707,0.8238265540937227,2.2161793912835734,1.206793245389454
480,1456703949799922,0.47331224793716076,1.9198497163042767,1.0474365071398002
481,1456703949822949,0.43409626363615994,1.6621388520223006,0.9929524723762339
482,1456703949844720,0.5895423141652303,1.5033830403072894,1.006559007974435
483,1456703949860941,0.8176432486878655,1.4405578913764567,1.0313209350474626
484,1456703949883910,1.0209586149192629,1.4218268651419688,1.0206369926095056
485,1456703949904905,1.1400713820539643,1.3799625865979714,0.9572586375068667
486,1456703949920902,1.1552218645760841,1.2664726329323652,0.8527542176307958
487,1456703949942987,1.08028799646662,1.0715320775303472,0.7326923670638809
488,1456703949964266,0.9510390500242146,0.8239245036609498,0.620159882917903
489,1456703949981266,0.8099560629855702,0.5748134387016116,0.5275031202631233
490,1456703950002603,0.6921049755762855,0.3747902177451276,0.45771692072725334
491,1456703950032338,0.6167671320200461,0.2542969273450373,0.41035512388289447
492,1456703950041300,0.5864717110354872,0.21482885952718,0.38602998939866096
493,1456703950062273,0.5914152067900016,0.23383956262372102,0.3868639767243102
494,1456703950084191,0.6158029879542793,0.2809030762179404,0.4139578608091978
495,1456703950100972,0.6435338252315423,0.33769089356347404,0.4645815553025741
496,1456703950122184,0.6623159075694308,0.4117758158565597,0.5312762726806232
497,1456703950144488,0.6663593630427386,0.5363041414519197,0.6038042159231889
498,1456703950168990,0.6578454767239797,0.7543371767079619,0.6737146372466568
499,1456703950181990,0.6469023965064302,1.09475543977287,0.7396977755241136
500,1456703950204205,0.6494879294457904,1.5510027256575554,0.8101380220973968
501,1456703950219992,0.6829318447743501,2.072415650428761,0.8995433627543183
502,1456703950242503,0.7600549041196456,2.572464319962128,1.019045142060014
503,1456703950282008,0.8839435309266069,2.951959094441412,1.1655616135105777
504,1456703950287239,1.0455138738265477,3.1297888881714817,1.3158197026038683
505,1456703950309223,1.22475205065511,3.070333891554268,1.4291803377378225
506,1456703950324224,1.3945776358022142,2.7970659386022634,1.4591211193721498
507,1456703950347023,1.5251269588193634,2.3866607197545524,1.3698436486698626
508,1456703950362024,1.587793209488326,1.9454832799930097,1.1527180862720765
509,1456703950385026,1.5614233110949745,1.5773128400658292,0.8367556823192785
510,1456703950407330,1.442839119037461,1.3546294097228593,0.488317464641675
511,1456703950423028,1.2588713647317338,1.3039670769031495,0.19861318283880652
512,1456703950444539,1.072904603510408,1.4089695773826443,0.061871824370297854
513,1456703950467851,0.980225041494515,1.626089602044812,0.1497335770017569
514,1456703950482837,1.0904581536285927,1.902837169795911,0.4883008266858509
515,1456703950504854,1.4976345018353114,2.190644496730809,1.0450681396804742
516,1456703950527833,2.2409500915755607,2.451627635828848,1.7327450677473462
517,1456703950542852,3.267149794459343,2.664269455035753,2.4325150244746907
518,1456703950564575,4.415937417745331,2.8318572858305426,3.030194188650663
519,1456703950587861,5.450612755744087,2.9899502028089175,3.4506965703085095
520,1456703950602865,6.137977480851653,3.2024447583951514,3.676441279809273
521,1456703950624897,6.350565777424529,3.5387341634053406,3.744722172871992
522,1456703950647595,6.140434765159946,4.038597736309605,3.7299464645691875
523,1456703950662596,5.737703123375942,4.685472664715756,3.7201355545218666
524,1456703950684897,5.4628675828924855,5.406035361090152,3.79205621059837
525,1456703950707863,5.588787717503751,6.093251467678547,3.9845412873481827
526,1456703950722861,6.215718609385046,6.633387740043636,4.274710883888951
527,1456703950744609,7.217632509470268,6.924808555254681,4.573116801051822
528,1456703950767618,8.287526676403171,6.895300509261105,4.753290815390937
529,1456703950784619,9.065164663348964,6.525736669665034,4.709359255527077
530,1456703950804620,9.288648549413358,5.868805177200504,4.409453136261087
531,1456703950834604,8.89719746899998,5.041603986046174,3.9099353626401467
532,1456703950844889,8.040050926347897,4.187649578361699,3.3219664908910325
533,1456703950863897,6.995902199748107,3.4289625129495667,2.755418532455853
534,1456703950887899,6.047859588223325,2.835237483602612,2.277622177294552
535,1456703950903898,5.3748653668647535,2.421353137849877,1.9074839853374794
536,1456703950924900,5.006691090281794,2.1647722510072334,1.6363953581570672
537,1456703950946913,4.8513378600412,2.0268840078706103,1.4517243549460477
538,1456703950963923,4.764993851422909,1.9677283303216375,1.3460500356320633
539,1456703950985925,4.621074730969824,1.9526144020756664,1.3128562788262204
540,1456703951007924,4.348680799131087,1.9546628501717487,1.3393834791669188
541,1456703951023925,3.9355135147929503,1.9574780046202278,1.404824836051785
542,1456703951044437,3.40884891769433,1.9580544819077834,1.484429595368973
543,1456703951066947,2.813131123568009,1.965830806830814,1.5554692408755357
544,1456703951083946,2.1963440595752517,1.9950156370425676,1.6013631895327278
545,1456703951104948,1.606331429846821,2.0532817296670323,1.6128440654605907
546,1456703951127949,1.0903573090742271,2.1336201957336227,1.5870776008777645
547,1456703951144491,0.6914142580185486,2.2138815548532587,1.5262264011569453
548,1456703951163974,0.4406366549863061,2.2636876130948735,1.4361711438893852
549,1456703951186970,0.34974817930951757,2.2550679414201955,1.3247659770967768
550,1456703951203971,0.40749477012074226,2.1721030678616136,1.1989047533865473
551,1456703951223977,0.5812622532620779,2.015679305816954,1.0617243940400367
552,1456703951246988,0.8224856901477389,1.8020827333463423,0.9131320571314373
553,1456703951269003,1.073747778212917,1.5573695353947696,0.7552018858648766
554,1456703951284194,1.2766305804099003,1.311079821066787,0.5994174316491736
555,1456703951307192,1.380975148640287,1.0920431112393725,0.4697063104906992
556,1456703951324003,1.3562404960375731,0.9268604600553317,0.39714425200941317
557,1456703951344741,1.2029825707801922,0.8397579134498303,0.4080339250649735
558,1456703951367029,0.9586188645180342,0.8520284734548405,0.5122523924756244
559,1456703951384024,0.6910181082240877,0.9803974524715791,0.6991314033866726
560,1456703951405361,0.47882775316918025,1.2349330748717238,0.9433850056187536
561,1456703951427329,0.3853004585400023,1.6168404787802961,1.2172881369236956
562,1456703951443539,0.43627852773565606,2.115260571479006,1.5015857198633231
563,1456703951464049,0.6109201376446861,2.70243876252077,1.7884262820628334
564,1456703951488048,0.848576673642067,3.328765787374753,2.074330024181726
565,1456703951509330,1.0697036812578675,3.9210916270835283,2.347312845565921
566,1456703951524336,1.2037184597251391,4.388030364176236,2.5764367325952184
567,1456703951547065,1.2135338934384232,4.635263297719119,2.7117589438012804
568,1456703951569073,1.1070840075011015,4.592030020397307,2.697917037900334
569,1456703951584293,0.9312198782218163,4.24555851129272,2.497899561168033
570,1456703951607306,0.7511375811548182,3.672845295463465,2.1182309263475623
571,1456703951629288,0.6252804633249053,3.052296508259847,1.6250468711727328
572,1456703951644830,0.5874641633573227,2.6375001771973543,1.1426757667719307
573,1456703951667106,0.6434144526442895,2.686902714696039,0.8314264108807612
574,1456703951698107,0.7806488280036081,3.365177269103094,0.8478101679101528
575,1456703951704388,0.9833632404206165,4.654610820408841,1.2967461330068426
576,1456703951727438,1.2415673747894347,6.322630485220921,2.18996530339136
577,1456703951743628,1.54808048367773,7.973888990225621,3.4261307318151766
578,1456703951766138,1.8868523829248152,9.1768422035754,4.803963648792754
579,1456703951787474,2.225136417665875,9.616505419822586,6.069465050588618
580,1456703951809427,2.5220444689060297,9.210114888301687,6.985447852701054
581,1456703951832853,2.7548134191731726,8.138573729783353,7.401617647817967
582,1456703951847156,2.949237096591709,6.783182441640027,7.301249513531263
583,1456703951869165,3.1927509865771744,5.595666675770213,6.807876282863021
584,1456703951886399,3.612904762818028,4.953393184355683,6.148656670238934
585,1456703951907427,4.31923125265771,5.05093871437515,5.58357394424373
586,1456703951930168,5.328005786684506,5.856636351623491,5.319898198216019
587,1456703951946180,6.50875866026689,7.135838381427202,5.4415774117408215
588,1456703951967190,7.594838915496812,8.526885751344354,5.885345072923081
589,1456703951989196,8.273984115348949,9.647458388926973,6.475675286733863
590,1456703952006191,8.323792469488291,10.198923193616285,6.996773035216624
591,1456703952027490,7.717623336455554,10.033139625872034,7.261829558522713
592,1456703952050218,6.638627801689288,9.164449156715829,7.154345772617487
593,1456703952066212,5.397580008935524,7.74010199585406,6.644370579391928
594,1456703952087569,4.304604731139485,5.997162699964634,5.793364350780005
595,1456703952111226,3.5596094104103884,4.2214203937233865,4.748784252246207
596,1456703952126215,3.2055890909182287,2.703478695479373,3.7156935444428183
597,1456703952147227,3.153188764971148,1.684244899225945,2.8997734093807295
598,1456703952170237,3.2511278636100744,1.2976901809665322,2.4395503124232234
599,1456703952186467,3.360052832611525,1.5330717511794443,2.3608413821184504
600,1456703952207449,3.3946192284247134,2.2367250580406095,2.5772253434564005
601,1456703952229238,3.324089228690128,3.1578035679169068,2.9341409464665937
602,1456703952254466,3.1484186536883145,4.023871191593292,3.271141266354092
603,1456703952267474,2.876664591434125,4.619375039619367,3.4718079487887366
604,1456703952290734,2.522621608523939,4.8380969822181354,3.4842357383589806
605,1456703952306739,2.112411302544224,4.69196254382391,3.3143467013316257
606,1456703952327740,1.6891517288266995,4.278344740960248,3.005423868570927
607,1456703952349490,1.3061458981983955,3.725568397561046,2.616336482168876
608,1456703952366493,1.0115797997726357,3.142764022686401,2.2046920145454396
609,1456703952387833,0.833269153185215,2.593735912916674,1.8167239834096796
610,1456703952410760,0.7705642047024994,2.0997680863155908,1.4838934015500178
611,1456703952426494,0.7963366104585112,1.6616115004130176,1.2246275929586934
612,1456703952447507,0.8676294324771393,1.2842421494820115,1.0484278904632183
613,1456703952470516,0.940355944726222,0.9914898570752252,0.9601666846730758
614,1456703952486516,0.9825653297817669,0.8262423048254631,0.963759295903831
615,1456703952507834,0.9823197980981715,0.8391838325038581,1.0645719201765196
616,1456703952531519,0.9486852444931841,1.0725325871553788,1.2693143210471862
617,1456703952545528,0.9060927241218577,1.5454506798013747,1.5824131189789796
618,1456703952567538,0.8833828708466017,2.245326501512335,1.9992823119748082
619,1456703952590868,0.9004395738985684,3.125284219193084,2.4985261879446212
620,1456703952606540,0.9575121631454843,4.105602703028117,3.035963646714604
621,1456703952627832,1.0331244035947234,5.077128231027937,3.5434303354262426
622,1456703952649560,1.0936081259534725,5.907944098789075,3.9351831314517693
623,1456703952666561,1.1108468483386043,6.458164700764147,4.123991466603224
624,1456703952689562,1.0787117591929591,6.608336860975508,4.046279761912869
625,1456703952710820,1.018523568334667,6.301821493324993,3.6911014870270824
626,1456703952726564,0.9709762803096812,5.5910747686055355,3.123673606370886
627,1456703952749581,0.9806897397866708,4.6667757752203824,2.4928542664455833
628,1456703952770582,1.0831539665663759,3.8448427531851936,2.013534161391088
629,1456703952786583,1.3009949908876761,3.495930721452188,1.9195848586906235
630,1456703952809585,1.6499488450325086,3.9260491163368436,2.3924020779299116
631,1456703952830587,2.1471166891325226,5.247289285191473,3.483922359552867
632,1456703952846595,2.8087191633374817,7.296209992292655,5.064782106897191
633,1456703952868827,3.628463795740094,9.646580540964418,6.827959096860424
634,1456703952890604,4.543507124618231,11.723907607623525,8.360686387010881
635,1456703952912604,5.4134975092860245,12.984322219849064,9.268493604089443
636,1456703952936588,6.042509691216802,13.094304435474562,9.309537573946365
637,1456703952950839,6.253536822942387,12.047955608636032,8.488908505648075
638,1456703952973841,5.988219053107227,10.18006313063094,7.075062586350447
639,1456703952987841,5.376015981900448,8.068683483092688,5.526902549374311
640,1456703953010843,4.722586770445118,6.359452136995577,4.350525158012745
641,1456703953032851,4.407907284313557,5.569482116836363,3.931211894334004
642,1456703953048862,4.7336775133724736,5.931802198799392,4.399717750156316
643,1456703953069868,5.78671577103927,7.326415703329284,5.584069935661768
644,1456703953092862,7.380962051066421,9.320104249562629,7.069240804091903
645,1456703953108863,9.111786800984767,11.305206882450102,8.345958627471994
646,1456703953129867,10.508467336762152,12.69013814694806,8.990564281150958
647,1456703953151890,11.218097043283468,13.070032729590832,8.801114247342499
648,1456703953168884,11.131907359837255,12.317747630246703,7.837376505992204
649,1456703953190885,10.39811167421924,10.580152711067637,6.363134254474698
650,1456703953219889,9.32978064777642,8.207526368699313,4.733206100602995
651,1456703953228889,8.263376895048772,5.654580843656244,3.278812244633319
652,1456703953249948,7.433518640570032,3.3765612302594845,2.2274144191938525
653,1456703953271906,6.911456776131695,1.7321725175129248,1.6684730363344502
654,1456703953288907,6.620230989421665,0.9089494297249492,1.5603627911350695
655,1456703953310168,6.40332275665068,0.8915914312399574,1.767384962943769
656,1456703953332129,6.1054180647895,1.4853222349198987,2.1137440708370634
657,1456703953349145,5.630629049866884,2.3876347634417825,2.4393807897656834
658,1456703953370147,4.964287077123695,3.2839873351796456,2.641420784793274
659,1456703953392409,4.1631508732872256,3.9343332253008825,2.6890602923947116
660,1456703953409147,3.32672277064316,4.22259671165293,2.6108088525718594
661,1456703953430150,2.561735861460736,4.159183896480201,2.4653807922341784
662,1456703953452585,1.9499272726169286,3.846529418536487,2.312277346254463
663,1456703953468733,1.5283712113360233,3.4273367791913425,2.1927767884833833
664,1456703953489729,1.2884980166700228,3.0334433279262702,2.122889523241788
665,1456703953512607,1.191902201548462,2.7478340536314603,2.094500473568941
666,1456703953528729,1.1921872403986502,2.5876887369624684,2.081213155245004
667,1456703953551523,1.2499060155368324,2.5110191720160056,2.0476800953363803
668,1456703953572524,1.3344259873419642,2.442779346882367,1.9615526101353309
669,1456703953588525,1.4169516745149036,2.3104440142558613,1.8049795979240115
670,1456703953610757,1.4651087879698084,2.0756304012164226,1.5807692854081377
671,1456703953640535,1.4471321617644641,1.748880821509675,1.3104863280832821
672,1456703953648536,1.34515147491239,1.3816436363595737,1.027064337500219
673,1456703953671546,1.1688747246867062,1.041492535437368,0.767325422892513
674,1456703953692755,0.9588066009439355,0.7856036578059279,0.5669979500547125
675,1456703953708725,0.7738898444188167,0.6459552792644435,0.45656891009454964
676,1456703953731714,0.6686141551476779,0.6298278958244135,0.45601662813527893
677,1456703953752775,0.671657984101436,0.7299641574335428,0.5695576700886082
678,1456703953768776,0.776823349546782,0.9357165425001434,0.7836834481108433
679,1456703953791777,0.9489541848243579,1.2387132035433577,1.0709347788619392
680,1456703953812779,1.1387424335280925,1.6313122378038316,1.3989597435374428
681,1456703953828779,1.2969468168529694,2.10100843203459,1.7410426796127034
682,1456703953850715,1.3826368799190747,2.625942843176353,2.0825767202633947
683,1456703953872750,1.3670738892988286,3.174325124956173,2.4196200721582404
684,1456703953888721,1.2376641936939625,3.706644746985758,2.7498898132501775
685,1456703953918720,1.0035787034960493,4.177869965963032,3.060516914068414
686,1456703953931722,0.701010481237267,4.538336111435063,3.3188849978072557
687,1456703953948231,0.3952112177262018,4.735285830091246,3.472729459672352
688,1456703953970740,0.17686306560843074,4.720051555888255,3.463101828049977
689,1456703953991748,0.15016247101007127,4.465677997899998,3.2487248298061817
690,1456703954007743,0.4108397762578602,3.9936563741544915,2.834397156902886
691,1456703954030757,1.0163083932216108,3.3984114986383864,2.2921843623300435
692,1456703954053762,1.9560355807589758,2.8517876641876465,1.763699524431579
693,1456703954067816,3.134422672410991,2.573591795790518,1.4353917255126483
694,1456703954090765,4.378121013843584,2.7680383789356067,1.4872223118329606
695,1456703954112771,5.473533897883831,3.543985420329974,2.0276773424294494
696,1456703954128765,6.227531946042668,4.851154623092913,3.0396911780783915
697,1456703954151070,6.52839638074016,6.465662192093016,4.364567159732871
698,1456703954172075,6.377104811315386,8.040160899498925,5.738364375239275
699,1456703954195335,5.87295302380808,9.20363383073067,6.870688831656276
700,1456703954211072,5.1639991716235345,9.672813787716567,7.534494306299229
701,1456703954232134,4.390179094705944,9.33617373482869,7.632836830238874
702,1456703954255130,3.6466188005642675,8.287788380885207,7.2232249582696975
703,1456703954271094,2.9830327858119428,6.805908315965051,6.497187759243115
704,1456703954292319,2.435605540773361,5.282173483921123,5.72337148224069
705,1456703954315289,2.0653342141990745,4.1171654809346,5.170061793151049
706,1456703954331347,1.968829897354439,3.609797049472229,5.028700603462942
707,1456703954360455,2.2461166037599347,3.8743481714691637,5.358757227442041
708,1456703954375161,2.941741136745121,4.811640481565907,6.067136476630373
709,1456703954391140,3.9955277790141985,6.143506755322416,6.930186518769345
710,1456703954412422,5.236101993862123,7.501151805304128,7.661255474627949
711,1456703954435476,6.4282859590798225,8.539783935338694,8.009198017629483
712,1456703954450987,7.35481120776697,9.036340635381153,7.847833926158661
713,1456703954473987,7.889758594988086,8.929505070677788,7.2106878126066904
714,1456703954495251,8.02511754762058,8.292578228796163,6.254509778056328
715,1456703954510989,7.843085315656895,7.270956841228964,5.178196063178837
716,1456703954531996,7.459186763274721,6.0302590584672675,4.146251096901286
717,1456703954555041,6.972299055636815,4.736581475143692,3.253695569706869
718,1456703954571037,6.446476368751349,3.554866963887263,2.5364331455294953
719,1456703954594004,5.925296584116282,2.639899360730394,2.0036667088562328
720,1456703954615005,5.456623240460046,2.1111456301242177,1.6639225733020744
721,1456703954631200,5.101344561550556,2.0234932200192097,1.5303068799152193
722,1456703954654226,4.915674489362206,2.350904583940505,1.6077873567507661
723,1456703954675509,4.917667810085755,2.990523786866352,1.8744858968208582
724,1456703954691504,5.061231766721971,3.7837792591707315,2.270318398904917
725,1456703954714231,5.239173267649217,4.547827973628768,2.7023659697929028
726,1456703954735786,5.320239715615871,5.113112493440699,3.067200935121769
727,1456703954751542,5.203192691244697,5.361368498197674,3.279750453028843
728,1456703954774542,4.8590798973773826,5.251986469075707,3.294694075061339
729,1456703954795791,4.339553645825801,4.824499265108388,3.112851006445965
730,1456703954811544,3.7494680273048018,4.1764758930666055,2.774098700944334
731,1456703954834303,3.2011726451689118,3.428729832290872,2.342393351325758
732,1456703954855546,2.773665766313134,2.692506803285213,1.8880344035341832
733,1456703954871215,2.492716908310563,2.0478621265789023,1.4713923851175834
734,1456703954894181,2.335911449076281,1.5361607588029575,1.1317133270254516
735,1456703954915487,2.2550105340786133,1.1652325574425084,0.8833612610581906
736,1456703954931184,2.201455448779317,0.922070535287683,0.7199634867942208
737,1456703954954222,2.1426918951167995,0.7859677307715286,0.6246158885410865
738,1456703954975223,2.0653592010787944,0.7371614234947241,0.5817371279626208
739,1456703954991485,1.969582199206026,0.7609859339561893,0.5848717824788617
740,1456703955014227,1.861581221020778,0.8499371433979448,0.6368550788083405
741,1456703955035748,1.7496042704137715,1.0041232689929864,0.7435588283194235
742,1456703955051029,1.6433722572757368,1.2285955146394454,0.9061114670973743
743,1456703955074030,1.553128864873589,1.5274077008353282,1.1163922581256516
744,1456703955095292,1.4847550008975248,1.8969164848346813,1.3577818924857847
745,1456703955111030,1.432678867257738,2.321636554495551,1.609912494943907
746,1456703955134678,1.3770931253685152,2.7744033006518185,1.8539078776176328
747,1456703955155559,1.2907803459056477,3.2196401276058695,2.0744420471293767
748,1456703955171503,1.1546257449202582,3.6161881880536058,2.2574000805869896
749,1456703955194534,0.9748588581926965,3.9174501173376926,2.385513317682418
750,1456703955215308,0.7925833001564639,4.0717987407000376,2.436435633583922
751,1456703955231507,0.6779434082704102,4.03033382249114,2.387008578515458
752,1456703955253713,0.7071882778577683,3.766582970364702,2.2243945856610177
753,1456703955275713,0.9290229175380585,3.3037636905606647,1.9605977305160285
754,1456703955291714,1.3332392164008036,2.7353883906428424,1.6434557053856167
755,1456703955314717,1.8367354255866126,2.2211734047650333,1.3565110721327807
756,1456703955335736,2.298039616076504,1.9474918351267363,1.2031887694561756
757,1456703955351245,2.560662839022095,2.0599512403416695,1.2766994665235532
758,1456703955373284,2.5113358055715116,2.596273992933344,1.6243151553403588
759,1456703955395614,2.129844233128041,3.455946717058935,2.2203437773166494
760,1456703955411248,1.5095730424556641,4.42942154164898,2.962298349080294
761,1456703955433250,0.8402793059972377,5.278320249776908,3.6966397805143467
762,1456703955455772,0.3587605486772796,5.827432501829875,4.2665900951303115
763,1456703955470739,0.28185771907325186,6.02099468764645,4.563186924717421
764,1456703955492558,0.7391166643674484,5.917930485099426,4.559656344374731
765,1456703955515703,1.7235728139763549,5.63881051791172,4.317850064885198
766,1456703955537547,3.0795883868157707,5.304397414162083,3.9667565323606415
767,1456703955552791,4.540804875565881,5.004059876865619,3.6615895490265262
768,1456703955575790,5.813043380198981,4.80464086544041,3.537029571982234
769,1456703955597792,6.670388412596982,4.775482417503345,3.6688194035677966
770,1456703955612792,7.016688030865105,4.989330598527688,4.0520369181682785
771,1456703955637607,6.8813704892139915,5.479359226555847,4.596557632344552
772,1456703955656912,6.364105009643625,6.177192638863293,5.140506290286226
773,1456703955672907,5.57762246239633,6.885641536424702,5.489016148464981
774,1456703955695909,4.62620904336203,7.32432880728555,5.480360854050624
775,1456703955717125,3.614284864406441,7.238386369224659,5.057426069372893
776,1456703955732912,2.6540352841704147,6.5163118093727475,4.302626876699164
777,1456703955756733,1.8539883438157527,5.252097804634235,3.4069504419194634
778,1456703955777734,1.2962404620929684,3.715883486310561,2.5850204350076
779,1456703955792735,1.0198322598045764,2.2487050713246,1.9838003335980112
780,1456703955815737,1.0204112997197228,1.1364078623213423,1.6342655864767182
781,1456703955837700,1.2639791948076693,0.520739928931025,1.4654393470407787
782,1456703955860042,1.7030493847359611,0.3772538821944299,1.3631949469910067
783,1456703955876036,2.282649255564534,0.5552594884773583,1.2357038978042625
784,1456703955897039,2.934022779851927,0.8539126587302505,1.0520380933136815
785,1456703955913040,3.56738862385463,1.1024988599305943,0.8423774337269416
786,1456703955936656,4.078074432679861,1.2163742113580869,0.6704641949564836
787,1456703955957345,4.369675406349233,1.2105712147786942,0.5985160565745463
788,1456703955973345,4.384228851985418,1.1703273788128083,0.6609876214444949
789,1456703955996347,4.124453098134833,1.1961986357837304,0.8537769001014776
790,1456703956017355,3.657865064280183,1.3513122351105595,1.1374494452780286
791,1456703956033349,3.100361406458794,1.6340177899560238,1.4499728040310966
792,1456703956056173,2.584348176318486,1.9834945097641177,1.7244257896630906
793,1456703956077475,2.223496501473826,2.3082618480166177,1.90691774116873
794,1456703956093176,2.087627212469979,2.5191534998451255,1.9690831654520624
795,1456703956116176,2.193365779469897,2.5534903081714333,1.9105765438247255
796,1456703956139469,2.5064705036207786,2.3880681769354717,1.7516477858823076
797,1456703956153477,2.9498842207173928,2.043388842584517,1.5214002739471695
798,1456703956176648,3.416673582558285,1.578862959349555,1.24879601972864
799,1456703956196479,3.790635686406555,1.0773500968367202,0.9596434730662652
800,1456703956212606,3.9740640670345417,0.6224574959070063,0.677685500593604
801,1456703956236223,3.9144215542995218,0.27790293266748145,0.4260315495876195
802,1456703956256741,3.6176291173732316,0.07742273073180059,0.22695600737366287
803,1456703956272734,3.1414224565784976,0.02662660306750666,0.10040227230779922
804,1456703956296737,2.573748041490994,0.11139484467380895,0.061981350449390876
805,1456703956317736,2.007669295855142,0.30550514083112656,0.12036430538651699
806,1456703956332738,1.521379736953535,0.5730763189591087,0.27354945331492214
807,1456703956355674,1.1657117658804745,0.8667040956178426,0.5044350483140003
808,1456703956377544,0.958187805592272,1.1268340179194654,0.7779640294920139
809,1456703956392713,0.8825667874856941,1.2888489621816566,1.0434462708435515
810,1456703956416545,0.8942588335912925,1.3000839112703657,1.2449515364221302
811,1456703956437629,0.9332430080170067,1.1419736023572655,1.3389739372692648
812,1456703956452847,0.9451681234070419,0.847820421434389,1.3127520764024272
813,1456703956475850,0.9069428212513837,0.5068710839249676,1.1926466783326382
814,1456703956498850,0.8467338699365594,0.2490172303206549,1.0349961567786006
815,1456703956512851,0.8447637199022641,0.2098877491996918,0.9020936126760087
816,1456703956536361,1.0065226419567033,0.48351940584434394,0.8358353178887354
817,1456703956558870,1.4142637429525182,1.0777371411013394,0.8427441003887829
818,1456703956579870,2.077739591613072,1.8917556844238221,0.8961619982397431
819,1456703956595871,2.9106637258762427,2.732340940317938,0.9519324690050499
820,1456703956618872,3.750068859359252,3.3719151264689997,0.9692172237558639
821,1456703956632873,4.413774803410272,3.6312586785378427,0.9280090795630928
822,1456703956656185,4.767698164568772,3.451443132983546,0.8367908653344759
823,1456703956679186,4.767400519171336,2.9192559552886035,0.7275362753206579
824,1456703956693187,4.45596384718621,2.232217837248915,0.6408054216797721
825,1456703956716188,3.928936439568078,1.6198338740624862,0.6080720443848217
826,1456703956739483,3.292530501659536,1.2572083742663067,0.6389246510052162
827,1456703956760326,2.6357141624521407,1.206704092810503,0.7180439066521106
828,1456703956775992,2.021775235097439,1.4078153363551655,0.8128506472456557
829,1456703956798997,1.4929983795066772,1.7144080042188645,0.8886134517517752
830,1456703956820358,1.078114679375899,1.9599431936307032,0.9244761428721684
831,1456703956836662,0.7954264643861677,2.0217418272790324,0.9226422859951653
832,1456703956859014,0.6507172689534026,1.8588614576959732,0.9053182880373847
833,1456703956880014,0.6333556197575684,1.5128426985388543,0.9001962159213803
834,1456703956896015,0.7146493058962685,1.0781777933869174,0.9224660175883421
835,1456703956919016,0.8507894290776358,0.6604857823217576,0.9644029894272824
836,1456703956940536,0.9906346962464484,0.34078287870229035,0.9991114988908545
837,1456703956956046,1.0871445208685826,0.15661172028436152,0.9956236787836062
838,1456703956979048,1.1099295029709277,0.10147091578830365,0.9354639230512062
839,1456703957000316,1.0546124785506517,0.1377216915976297,0.8211165692656535
840,1456703957016276,0.9439516484588972,0.21568842782213934,0.6731734509806881
841,1456703957039533,0.8181923528078057,0.2916959621891412,0.5198844624035901
842,1456703957060581,0.717722096882108,0.3395334403002341,0.38597617936998074
843,1456703957076527,0.6663422737453786,0.35298434059083394,0.28604639672556503
844,1456703957106284,0.6639470496694901,0.34065936149611775,0.22392539071154335
845,1456703957120621,0.6918284372562252,0.31707982467197326,0.19621599845638815
846,1456703957136286,0.7261056588827781,0.2947637099509144,0.19709190317465936
847,1456703957159309,0.7508557009000874,0.28056404606492213,0.22194399108348473
848,1456703957180325,0.7645870945682647,0.27645139674011926,0.26877517450531474
849,1456703957196313,0.7784980333662197,0.2822870279673594,0.3373776675384383
850,1456703957219312,0.8083679968966423,0.2976311606298647,0.4267121639726253
851,1456703957240699,0.8633529594186281,0.32122662344553127,0.5311567687422349
852,1456703957256137,0.9359253243712214,0.3489590855977502,0.6372271461349783
853,1456703957278137,0.9978951841548892,0.3723034514296584,0.7233383750345537
854,1456703957300180,1.0063336946896675,0.379052122475837,0.7644687130182174
855,1456703957316174,0.9190520795625033,0.35690030068781026,0.7406979489297102
856,1456703957338356,0.7134650997489806,0.29879992731015753,0.6455648689428153
857,1456703957360395,0.3995452731386994,0.20753067550784854,0.48990364183211016
858,1456703957376580,0.020256481869069597,0.09668178837659008,0.2996709434668028
