,timestamp,emg1,emg2,emg3,emg4,emg5,emg6,emg7,emg8
0,1456704106225355,0.307931902076746,0.5374030954662172,-0.12420561603115636,-0.3773770184023756,0.30351289091042494,0.09897594420711335,0.1343335560351881,0.00655024796219351
1,1456704106225355,0.9540994552266211,1.2433411035983002,0.6165645022362979,0.5776443466487446,0.6050792774480482,0.22535478167156267,0.6624242325302165,0.26888950575656884
2,1456704106226355,1.5850158714975757,1.9199238726866892,1.3589001354776165,1.5561108662961796,0.8957094486396302,0.3455259044261755,1.1861315019870171,0.527060964817152
3,1456704106226355,2.1955905792720602,2.5613943484084665,2.0916452790166136,2.54534333015366,1.1728404795982004,0.4587983541454401,1.6995883376361267,0.7785116021178087
4,1456704106227355,2.7809488513035494,3.162477621888028,2.804163786618073,3.532931664069663,1.434062667889013,0.5645881921917854,2.1971073046077487,1.0208628329807459
5,1456704106227355,3.336521662419056,3.7184984057145534,3.4866329686490585,4.507054329779867,1.6771724579393406,0.6624325421426274,2.6732963312780176,1.2519663507547536
6,1456704106228355,3.858128433447043,4.2254820443766254,4.1303003182995015,5.456753470949495,1.9002203295581463,0.7520005310920485,3.1231650790225105,1.4699505083607411
7,1456704106228355,4.342049845299764,4.680234988073117,4.7276931343872715,6.372157351820723,2.101552399796567,0.8331007877947066,3.5422195603375757,1.6732558885153002
8,1456704106239354,4.785088171496341,5.0804019132529055,5.272773455907865,7.244645440705025,2.2798448058041623,0.9056852213131964,3.926543152258921,1.8606592428860176
9,1456704106239354,5.184613327844883,5.424498114731038,5.761034121501982,8.066954436432072,2.4341301570917326,0.9698488429964779,4.272862667071459,2.031285321518864
10,1456704106254650,5.538594064580397,5.7119171867021485,6.1895356487396676,8.83322673933163,2.5638157120421488,1.025825533376472,4.5785986162358325,2.1846064166654857
11,1456704106254650,5.845615074831142,5.942915289944806,6.556887567740834,9.539006696544464,2.6686934793229673,1.0739799086352484,4.841899063352261,2.320429933788413
12,1456704106255352,6.104881761912337,6.118574500405105,6.86318104250506,10.181193299696831,2.748942891773131,1.1147957008450906,5.061656500122718,2.438875026140737
13,1456704106255352,6.316214650251906,6.240748687419195,7.10988138700042,10.757959717046367,2.8051267733126393,1.1488612159930898,5.237507258634601,2.5403400636231206
14,1456704106270353,6.48003501908422,6.311995762567537,7.29968954805631,11.268649997822425,2.8381810538264944,1.1768524473290367,5.369813460940311,2.6254631874037853
15,1456704106270353,6.597342719718358,6.3354998844972545,7.436381364179667,11.713662027119867,2.8493983362099704,1.1995143415480143,5.459628518002439,2.695078379899255
16,1456704106278602,6.66968668517042,6.31498658756648,7.524632712879139,12.094323763836103,2.8404051519763858,1.2176405973719995,5.50864833835829,2.7501694720591066
17,1456704106278602,6.699128431661586,6.254633243730341,7.56983755938428,12.412767231074007,2.8131325732041197,1.2320522919298253,5.519151106185263,2.7918244021119687
18,1456704106283366,6.68819883354273,6.158976988129913,7.577924582765736,12.671802069032122,2.769779806818952,1.2435756653434105,5.493928561685072,2.821191833838756
19,1456704106283366,6.6398486320972046,6.0328221116071346,7.5551767888414805,12.874788385786875,2.712770566587204,1.2530195727012448,5.436211465843195,2.8394419309828356
20,1456704106308583,6.557393439157671,5.881148698804519,7.50805755992036,13.025507888552546,2.644702439119793,1.2611533531631645,5.349591666331244,2.8477326846348285
21,1456704106308583,6.444454135149707,5.709023938457322,7.443046033633833,13.128033299047148,2.568290061987807,1.2686860411356538,5.237942958791229,2.8471827113470987
22,1456704106311583,6.304893330615747,5.521517210560367,7.366484498653946,13.186598644294081,2.486303540068924,1.276247863950622,5.1053426634068515,2.838850893951405
23,1456704106311583,6.142748218941283,5.323619839671273,7.284440459901351,13.205476018641734,2.4015039833033276,1.2843748187026118,4.9559954028760735,2.823722704278266
24,1456704106337585,5.962160295395085,5.12017025943481,7.202585929097547,13.188866136617772,2.3165783454733853,1.293496867470831,4.794159978622247,2.8027026384928813
25,1456704106337585,5.76730336815789,4.915785282255665,7.126096153783593,13.140809472193418,2.234075932217134,1.3039300480955327,4.624079657120317,2.776611931956779
26,1456704106344585,5.562312626135665,4.71479827073787,7.059569337987479,13.065122580521347,2.156348998437901,1.3158726326562578,4.449915728532899,2.7461905425720325
27,1456704106344585,5.35121838454432,4.521205175783177,7.0069680884336565,12.965361631245086,2.085499709703783,1.329405356442583,4.275683884711154,2.7121022859981263
28,1456704106345585,5.137887907772993,4.33861940289929,6.971582633222736,12.844813003728893,2.023335406415541,1.3444956286942238,4.105192873072353,2.6749420107176674
29,1456704106345585,4.925977501126265,4.170236137331131,6.956015355030967,12.70650899290047,1.9713336404155286,1.3610054903795736,3.9419852191471856,2.6352438164730136
30,1456704106346585,4.71889542112733,4.018806191157856,6.9621856259311565,12.553265071738792,1.930617903637176,1.3787029163827236,3.7892805202659066,2.593489503515396
31,1456704106346585,4.519774687212261,3.886618876377362,6.991353222085221,12.387733761521506,1.9019443854534037,1.3972759093902538,3.6499225608715737,2.5501166641550306
32,1456704106359586,4.331454000270355,3.7754930233674364,7.044157890179278,12.212468990933434,1.8856995529326976,1.4163487313842604,3.5263320593050422,2.5055260873854253
33,1456704106359586,4.156464750168699,3.686775087455974,7.120672047906749,12.02999369055762,1.8819079427548566,1.4354995789027831,3.4204671670522537,2.460088418064443
34,1456704106365774,3.9970222958187813,3.621343351954365,7.220463017717909,11.842862152749817,1.89024934609482,1.4542790437583148,3.3337938298305176,2.414150230806874
35,1456704106365774,3.8550201026649282,3.5796175582036285,7.342660463610313,11.65370786479931,1.9100845165755154,1.4722288090507127,3.2672677957796257,2.368039759336121
36,1456704106373592,3.7320258244603552,3.561573705799071,7.486023970860732,11.465268044509022,1.9404885080403664,1.488900156047438,3.2213295971628564,2.322072396743964
37,1456704106373592,3.6292788754001166,3.5667640117663755,7.649005508349989,11.2803785238958,1.9802906440636185,1.5038719173923192,3.195913369698537,2.2765557915935264
38,1456704106388605,3.547689266840817,3.5943420517006435,7.829802307615994,11.101936500403644,2.0281199250474913,1.5167674601901613,3.1904698913649936,2.2317941163777957
39,1456704106388605,3.4878375082608657,3.64309311195189,8.02639735373559,10.932832900900008,2.0824544564299146,1.527270138120497,3.2040036963213194,2.1880911105161704
40,1456704106404777,3.4499754705610064,3.71146983346027,8.236586655367143,10.775859693092139,2.1416732885279095,1.5351364777350733,3.235123556711688,2.1457518082211045
41,1456704106404777,3.4340284528641956,3.7976331620528807,8.457994389284622,10.63360006050683,2.2041089083679637,1.5402062399701404,3.282104981735894,2.1050831985069616
42,1456704106406771,3.439599118936469,3.8994983074439515,8.688078821269405,10.508311033938282,2.2680985484206273,1.5424085063724824,3.342962601112254,2.066394149406772
43,1456704106406771,3.465974192713844,4.014784974326073,8.924133344297521,10.401809007344994,2.332032570353034,1.5417631479559202,3.415529427041424,2.029994694460619
44,1456704106419775,3.512134733789033,4.141070825435484,9.163287642085276,10.315368389327897,2.3943985160767856,1.538377451235662,3.4975392008461315,1.9961944164273484
45,1456704106419775,3.576770574692845,4.275847090440318,9.402513794831775,10.249642341442765,2.4538199237650504,1.5324382035419524,3.5867075343174792,1.9652994713446643
46,1456704106425773,3.6582992422323164,4.4165752897364685,9.638641376000525,10.204612319471522,2.5090894862232687,1.5242000007227576,3.6808074858740296,1.9376079447731256
47,1456704106425773,3.754889490977705,4.5607439822111155,9.86838450940291,10.179570389541382,2.5591964034410695,1.513970795912097,3.7777355996385316,1.9134035961660922
48,1456704106433778,3.8644894752832113,4.705924292046017,10.088382642713425,10.173135542987092,2.6033478066289995,1.5020957577270064,3.8755652389928197,1.8929483325509693
49,1456704106433778,3.984859501925166,4.8498228854445635,10.29525572329924,10.183302852816508,2.6409839971933735,1.4889404568683762,3.972585168621119,1.8764738164384553
50,1456704106448768,4.113609096081971,4.990331039148791,10.48567369563075,10.207522335119904,2.6717870683555653,1.474874338389599,4.067322605350651,1.864172578414775
51,1456704106448768,4.248237749957648,5.125568286113136,10.656439445506589,10.242802601501799,2.6956823209098375,1.460255351772313,4.1585511109981095,1.8561890328686401
52,1456704106455768,4.386178336186193,5.2539188354847495,10.804582961172404,10.285832744478233,2.712831817066265,1.4454164620021732,4.2452845269199155,1.8526108686468965
53,1456704106455768,4.524841927313454,5.374058882273865,10.927462540379674,10.33311460348854,2.723619571521436,1.4306545889585685,4.32675869546521,1.853461286329057
54,1456704106465609,4.661662838874097,5.484973383881329,11.02286690384681,10.381096879681095,2.7286283122367463,1.4162223960733253,4.402403277943363,1.858692427704081
55,1456704106465609,4.794143226419961,5.585961741618649,11.089110633340823,10.426302601420959,2.7286083426458867,1.4023232658630091,4.471806717570835,1.8681801323622413
56,1456704106479632,4.919897395629758,5.676632623856361,11.125114753008841,10.465442298907421,2.7244396809241187,1.3891096696288998,4.534678032453042,1.8817199764888364
57,1456704106479632,5.036696710866017,5.756888797476195,11.1304648293198,10.495507136815755,2.717089269868275,1.3766849035308935,4.590809283586464,1.8990245639764534
58,1456704106485735,5.142516148022933,5.8269035691022095,11.10544079428361,10.513838948831811,2.707565494842952,1.3651078590756671,4.640042212361047,1.9197223152068232
59,1456704106485735,5.235582956452312,5.887091228838888,11.0510153026497,10.518176667578677,2.6968723656158406,1.3544002096975947,4.682241873348873,1.9433583754733452
60,1456704106493854,5.314426772687561,5.938074232026299,10.968820091386762,10.506680322498166,2.6859655671585037,1.3445551946128518,4.7172792162445045,1.969398487979788
61,1456704106493854,5.3779292373452,5.980649467110275,10.861082221139336,10.477934952929509,2.675712357244814,1.335547085515002,4.745023544099011,1.9972366218333297
62,1456704106508857,5.425369991153102,6.015755140155121,10.73053424840786,10.430938176529985,2.666857059342706,1.32734042277102,4.76534470088087,2.026206873423544
63,1456704106508857,5.456464976767729,6.044439051861963,10.580304220125518,10.365076670760548,2.6599935828875845,1.3198981936795873,4.778123880758373,2.0555997946754956
64,1456704106516857,5.471392310657783,6.067828600640958,10.413792735949178,10.280097721224301,2.6555459232886447,1.3131882791186582,4.783271256512443,2.0846829060112584
65,1456704106516857,5.470800857653239,6.087102683962362,10.234544992861744,10.176081798828696,2.653756993347395,1.3071877078752268,4.780748273310629,2.1127247157643128
66,1456704106529859,5.455797491462649,6.103465614460161,10.046125503628627,10.053420942447215,2.654685547865883,1.3018845371097603,4.7705923761210105,2.1390211039134956
67,1456704106529859,5.427911119605343,6.118122989409238,9.852002101760812,9.912805850274438,2.658210533374627,1.2972775062550423,4.752941898430482,2.162922524941457
68,1456704106538894,5.389034504131681,6.132259018421929,9.655444339614077,9.755222281832316,2.664042024916522,1.293373928024976,4.728058578924406,2.1838602474880755
69,1456704106538894,5.341347751898127,6.147014284426726,9.459439920903092,9.581954892295615,2.6717379862081736,1.2901865018558722,4.696344695247987,2.2013698198566836
70,1456704106545859,5.287229149168502,6.163462673560311,9.266631458489863,9.394594386458808,2.680726273620402,1.2877297857406882,4.658351518881201,2.215110115905735
71,1456704106545859,5.2291594686101215,6.18258649718706,9.07927443544103,9.195042608824734,2.6903314289852114,1.2860169097371348,4.614776220482449,2.224876650090581
72,1456704106553859,5.169625330238937,6.205249527267633,8.899215797795428,8.9855105465257,2.699805750648787,1.2850568145694024,4.566445598275186,2.2306083039246833
73,1456704106553859,5.111026218903416,6.232168463039448,8.727891374511483,8.768506105529621,2.708363867306526,1.2848519801543288,4.514286683023915,2.2323870867438806
74,1456704106567866,5.055588762474401,6.263883935244477,8.566339529532717,8.546810889734731,2.715219637059278,1.285396406085978,4.459285976105508,2.2304309947280996
75,1456704106567866,5.00529105279842,6.300732363711173,8.415228218259827,8.323446940257885,2.7196237543464585,1.2866735898259043,4.402440563879204,2.225080450947701
76,1456704106576689,4.961799191473007,6.342819892042958,8.274892818214191,8.101635041477156,2.7209000069041354,1.2886543727741095,4.3447053429330635,2.2167792442525402
77,1456704106576689,4.9264177942262215,6.389999478869282,8.145382331416407,7.884745941769189,2.7184777251434786,1.2912946623132395,4.286940825374384,2.2060512912689796
78,1456704106583434,4.900055734626813,6.44185223288788,8.026511619350682,7.676245078734949,2.711917812894801,1.2945331108377982,4.229865566512284,2.1934748039828094
79,1456704106583434,4.883207822884885,6.497674280963666,7.917917471275713,7.4796306111585,2.700930151070856,1.2982888810561568,4.174016545789401,2.1796554966546493
80,1456704106598900,4.875952428905321,6.556470701573844,7.819116635153,7.298364101870411,2.6853811805815213,1.3024597244578906,4.119720085504709,2.1652003756411733
81,1456704106598900,4.877964375994384,6.616958034135395,7.729564119892221,7.135793273049816,2.665291704560609,1.3069207313249829,4.067075107243549,2.150693497616308
82,1456704106604895,4.888541734618972,6.677576406059731,7.648709829249804,6.995067117443623,2.640825922152925,1.311524172962726,4.01594966132706,2.1366748499820374
83,1456704106604895,4.906644356359593,6.736511647074442,7.576051078041802,6.879045391151615,2.6122733130754923,1.3161007749766058,3.9659908051674457,2.1236231917491906
84,1456704106612894,4.930941258761664,6.791727390470417,7.5111780801947905,6.790206534732642,2.5800254063659267,1.320462563119931,3.9166471924216224,2.1119433550966185
85,1456704106612894,4.9598637051325705,6.841007289327717,7.453809211495573,6.730559339072616,2.5445497362199085,1.324407207051851,3.867203232239273,2.101958240421999
86,1456704106628894,4.99166124731392,6.8820077138606655,7.403812856264593,6.701563709822166,2.5063632933281292,1.3277236325926545,3.81682334175541,2.093905579402879
87,1456704106628894,5.024458845322636,6.912321092362666,7.361213294646334,6.704065033963423,2.4660074749503,1.3301985851678315,3.7646044918051933,2.0879394344638564
88,1456704106636113,5.056313979331535,6.92954928405268,7.326179628754304,6.738245496495972,2.4240260286660296,1.331623754435451,3.70963474911046,2.084136238449712
89,1456704106636113,5.08527324240701,6.931385334549339,7.298998782528602,6.803594593219553,2.380946935405674,1.331802989298134,3.651054817496376,2.0825048846010765
90,1456704106642901,5.10942829985481,6.915700938793094,7.280035244183884,6.898900179054821,2.3372687064284445,1.3305590956290256,3.588118907792036,2.082999990061459
91,1456704106642901,5.126971270820752,6.880635951546085,7.26968092913601,7.022260683644247,2.293451199941054,1.327739779226251,3.5202509924081995,2.085537096637922
92,1456704106659159,5.13624936134405,6.8246854152442,7.268298636519635,7.171118460647911,2.2499107468025743,1.3232224580665153,3.4470928680671826,2.0900083678748835
93,1456704106659159,5.13581794347317,6.746779117782952,7.276162615239343,7.342313472363231,2.2070191017210696,1.3169178466153737,3.368541323439239,2.096297353405273
94,1456704106665109,5.124490477413427,6.646348854523907,7.293399802467386,7.532155799285027,2.1651055801588694,1.3087723743518833,3.284772624010601,2.1042915708855974
95,1456704106665109,5.101383073286803,6.523379215830298,7.319935061009505,7.736515043924837,2.1244617469525324,1.2987696467112992,3.196253139222042,2.1138919005216934
96,1456704106673740,5.065951391850682,6.378438662119824,7.355443242738997,7.950924409339557,2.0853481258925806,1.286931256806119,3.103735387632643,2.1250180837629435
97,1456704106673740,5.018018044801445,6.212688856416519,7.399310456672622,8.170696649717833,2.0480024922865154,1.273317250744363,3.0082394735019555,2.1376100273066316
98,1456704106688973,4.957789342789216,6.027871612146831,7.450606625214185,8.391048179908807,2.012649321039814,1.2580264447609188,2.911020963516958,2.151625091775344
99,1456704106688973,4.885860695714143,5.826274153555324,7.508071161133235,8.607226886572706,1.9795098650643241,1.2411966582809262,2.8135273661035494,2.16703192698833
100,1456704106695974,4.803210081934726,5.6106745739737525,7.570113387684207,8.814638960919828,1.9488121560264657,1.223004806836646,2.7173460842448733,2.183801613752446
101,1456704106695974,4.711179040597337,5.384270459599913,7.634829150008853,9.008970123655395,1.9208000331511605,1.2036666965308627,2.624146906453205,2.201896956443665
102,1456704106710975,4.611440896245057,5.150594572460161,7.700034711966589,9.186296584353192,1.8957402171569457,1.1834362914543513,2.5356219920402054,2.2212608484816756
103,1456704106710975,4.505956492664288,4.913422059963061,7.763318334628554,9.343181168650792,1.8739264950025545,1.1626042083794934,2.453426087650031,2.2418047259678473
104,1456704106719340,4.3969185434541735,4.676673729313138,7.822109040608871,9.476750660324868,1.855680213180326,1.141495226044462,2.3791194039006824,2.263398177934093
105,1456704106719340,4.286686673336674,4.444319551939027,7.8737611806827115,9.58475136372229,1.8413464413675227,1.120464648359631,2.3141151940005593,2.2858607285843124
106,1456704106725262,4.177716118834208,4.220285966915574,7.915652481739229,9.66558059724848,1.8312854370309968,1.0998933887860223,2.2596337000668942,2.308956610813754
107,1456704106725262,4.072483639726536,4.0083698824710785,7.9452921802598695,9.718292180032511,1.825859525179947,1.0801816313150994,2.2166638219560406,2.3323930339405528
108,1456704106733280,3.97341431240071,3.812161512270647,7.960434831803977,9.742574707740355,1.8254161244208171,1.0617409183433788,2.185933584846338,2.35582211196966
109,1456704106733280,3.882812521680614,3.6349773174315274,7.95919471716017,9.738703375348948,1.8302681529398093,1.0449845875386792,2.167890209590809,2.3788463761831307
110,1456704106747978,3.802799743082235,3.47980347311482,7.940155351242155,9.70746914345877,1.8406732930537837,1.0303166506277137,2.1626903261932986,2.401027672279533
111,1456704106747978,3.7352607970645213,3.3492495702982548,7.902468017064634,9.650091778681174,1.8568136155869777,1.0181194428625957,2.1702005820539996,2.4218991675470756
112,1456704106755262,3.681799354457547,3.245511717816371,7.845932367510446,9.56812437599051,1.8787769361414326,1.008740617062141,2.1900085480002294,2.440980091446186
113,1456704106755262,3.6437027432812976,3.1703437774170826,7.771051644965278,9.4633564343911,1.9065410614304845,1.002480237302716,2.221443455704675,2.457792669557858
114,1456704106769985,3.6219157260714288,3.125035166530314,7.679056080042649,9.33772150104625,1.9399618743733311,0.9995787649482821,2.2636059674532194,2.4718804902232545
115,1456704106769985,3.6170229742965545,3.1103936408167243,7.57189091626065,9.193214585524276,1.9787660499176376,1.0002066018725424,2.3154058704190903,2.482827329653423
116,1456704106779501,3.6292402870443894,3.126731843661741,7.4521691959756104,9.031823917528607,2.022549054401647,1.0044556360987769,2.3756062680806527,2.4902753680761567
117,1456704106779501,3.658414853760249,3.173857120009754,7.323092407083973,8.855480853835585,2.070778889656221,1.0123330415726561,2.4428725332956414,2.493941812528266
118,1456704106785797,3.7040348596066783,3.2510649306433623,7.18834391640403,8.66603066896659,2.1228057398055875,1.0237574955715425,2.515824018191491,2.4936331385888892
119,1456704106785797,3.7652484576239886,3.357136988593422,7.051961426181851,8.465225539773254,2.177877231878019,1.0385579866969314,2.5930862539332096,2.4892563542945445
120,1456704106793403,3.8408915816246667,3.4903458663996436,6.918195808586246,8.254739254365715,2.2351584590666773,1.056475411499362,2.6733410996851914,2.4808267667739274
121,1456704106793403,3.9295233262147455,3.6484682030900637,6.791364256004865,8.03620118409713,2.293755357816488,1.077167115273025,2.7553721008515093,2.4684716618440157
122,1456704106808340,4.029466967640817,3.828808689527075,6.67570545461896,7.81124517816728,2.352739657758816,1.100214404770318,2.8381023207335843,2.4524292106212804
123,1456704106808340,4.138854504207306,4.028236689592729,6.575243583258827,7.5815676178212215,2.411173584362949,1.1251328834028829,2.9206221673278168,2.4330420156246984
124,1456704106824376,4.255672954069322,4.243236678979151,6.493666622066665,7.348988120246652,2.468132826242092,1.1513852668759896,3.0022052847469216,2.4107451237152393
125,1456704106824376,4.377811243236652,4.469972719332334,6.434222910778936,7.115506365595098,2.522726886267721,1.1783961443936106,3.0823115354827397,2.386048984739192
126,1456704106830011,4.50310687148925,4.704366053088297,6.3996383093328255,6.883349032487755,2.5741166041687626,1.2055679851890801,3.1605774220624148,2.359518481367155
127,1456704106830011,4.629391477125205,4.942183793332101,6.392054942282349,6.655001506960068,2.6215291577201927,1.2322976103981171,3.2367955510000974,2.331749524229735
128,1456704106839372,4.754534229748941,5.179135825564486,6.412991575264492,6.433219787750573,2.664271149853651,1.2579924007261583,3.3108854900454032,2.303344708860811
129,1456704106839372,4.8764820879152335,5.410976560807014,6.463325120347616,6.221019117400564,2.701740485306509,1.2820856637633362,3.3828586501649824,2.27488934591076
130,1456704106845011,4.99329639149154,5.633607947518176,6.543292210859637,6.021637450490084,2.7334376247984253,1.3040507666330565,3.4527799303352067,2.246929025141852
131,1456704106845011,5.103185634554873,5.843179920094889,6.6525089096595655,5.838473682353126,2.7589765092621654,1.323413801389127,3.5207288899966045,2.21994978465651
132,1456704106853012,5.204534299716779,6.036184310652622,6.790005611071974,5.6750023699342504,2.778095095411599,1.339764676568892,3.586763115751465,2.194361825118251
133,1456704106853012,5.295927417971223,6.209538615274341,6.95427358972826,5.534668481803854,2.790665116249294,1.3527665954676755,3.650886256035068,2.1704874977180353
134,1456704106868018,5.376170287406978,6.360657021955646,7.143319653438127,5.420767462999097,2.7967003161998605,1.3621638659006594,3.7130229040648426,2.1485540739426274
135,1456704106868018,5.444302681282764,6.487507181919964,7.354725610143459,5.336317268196639,2.7963619675012485,1.3677879012891567,3.773002007520613,2.1286916342424447
136,1456704106875340,5.49960690934013,6.58865167229398,7.585709340835614,5.283929649581006,2.7899601218631234,1.3695611745253427,3.830549780356048,2.110936270961073
137,1456704106875340,5.541609184774536,6.663273072890313,7.833184275434897,5.265687818447558,2.777949102984311,1.367498838261605,3.8852923850328263,2.095238627305575
138,1456704106890794,5.570073856562691,6.711181728516125,8.093814382637772,5.283036840184066,2.7609163718372276,1.361707761621257,3.936768115907091,2.081477533497201
139,1456704106890794,5.584990312072405,6.732805889446616,8.36406258927564,5.336692057937136,2.7395649052806372,1.352382832111456,3.9844484511178884,2.0694781204611323
140,1456704106899831,5.586552858301133,6.729164690063777,8.640231861709239,5.4265697419580095,2.7146901509305166,1.3398004830390657,4.027767057715976,2.059033323194557
141,1456704106899831,5.575134571950228,6.701825007828076,8.91849995530598,5.551743196271468,2.6871530938669985,1.3243095262004811,4.0661555458044205,2.049927259831447
142,1456704106905792,5.551256786108565,6.652843801275087,9.194950626371783,5.7104266660465175,2.657851016509514,1.3063195345055156,4.099084388145675,2.041958731072513
143,1456704106905792,5.515556426654153,6.584698387883434,9.46560514268532,5.899988383300357,2.6276874047874617,1.2862872159303624,4.126106844080204,2.034963069869568
144,1456704106913634,5.468753700885733,6.500208170885763,9.72645783791457,6.116992868582052,2.5975423176966927,1.264701376185837,4.146902945630604,2.0288307637091205
145,1456704106913634,5.411622535913847,6.402451970944543,9.973518534097956,6.357271246655808,2.5682444112691796,1.2420671482675678,4.1613199009137025,2.0235216749785154
146,1456704106928797,5.3449656544294175,6.29468491000339,10.202863388600317,6.616016992581239,2.5405456684373,1.2188901992206798,4.16940510213082,2.019074223876167
147,1456704106928797,5.2695954308477875,6.180257854015117,10.410694358907628,6.887903382109016,2.515099713842335,1.1956616255996453,4.171428524867242,2.0156093494843295
148,1456704106935794,5.18632091374154,6.062541314788103,10.593406237158414,7.167218140201681,2.4924443952210797,1.1728441985690616,4.167892488740333,2.013329295175158
149,1456704106935794,5.095940789362687,5.94485497153939,10.747659367211437,7.44801042047304,2.4729891520189837,1.1508605006203556,4.159528144011599,2.01251142738697
150,1456704106950637,4.999241667076398,5.830403686365565,10.87045568689422,7.724245162371533,2.4570075993145575,1.1300833348348474,4.147279361854422,2.013497585724186
151,1456704106950637,4.897000853790092,5.722220699246926,10.959215152061649,7.989959745919499,2.4446356338893267,1.1108286326811156,4.132275769624562,2.0166798005271427
152,1456704106959754,4.789992626893427,5.623118278308991,11.01184856321927,8.239417532729213,2.435875091100683,1.0933509568550157,4.115797378367934,2.02248337994629
153,1456704106959754,4.678996819096227,5.5356455636569635,11.02682181288085,8.467252741564792,2.4306025630078536,1.0778415777391137,4.099233513439705,2.031348303425216
154,1456704106965637,4.56480830033883,5.462052949862584,11.003206595166334,8.668601846505156,2.4285825684517626,1.0644289811654668,4.084038602105678,2.043709675287846
155,1456704106965637,4.4482457560406665,5.404262162138543,10.940714023472168,8.839218328453109,2.4294839387830036,1.0531815384913337,4.071687009337667,2.0599778052522533
156,1456704106981658,4.330158113792351,5.363841069381475,10.839709573403786,8.975569190116008,2.4328980489040917,1.0441119473250773,4.063628770818235,2.0805183529944085
157,1456704106981658,4.211427146018944,5.341982129181016,10.701209197636903,9.07491221683915,2.438357396442144,1.037182963468438,4.061247719622904,2.105632907207009
158,1456704106988458,4.09296521022892,5.33948315834617,10.526857120549648,9.135352623771121,2.4453531165397346,1.0323139289801175,4.065822977830981,2.1355403224969884
159,1456704106988458,3.9757077194216914,5.356729072139516,10.318886419993643,9.155877337276396,2.453350423388017,1.0293876586954127,4.078494166503909,2.1703591073163704
160,1456704106995748,3.8606005789129076,5.393673733162157,10.080064598459023,9.136365348175406,2.461801652188253,1.028257332942161,4.1002303016333865,2.210091222089222
161,1456704106995748,3.7485833220039004,5.449822226668938,9.813627462967034,9.077573250533723,2.470157309895981,1.0287531155711875,4.131802343193974,2.2546078424169353
162,1456704107010791,3.6405690786197678,5.524215266281076,9.523204820880819,8.9810958468317,2.4778760359597887,1.030688271872787,4.173759561590441,2.303637875477053
163,1456704107010791,3.537422959148925,5.615418387378656,9.212740691819562,8.849302552964843,2.484434459284487,1.0338646204447512,4.2264101069656395,2.356760194861369
164,1456704107019824,3.4399408623295704,5.721518902959962,8.886410002288262,8.685251589373674,2.4893376787647505,1.0380772327636418,4.289806488843014,2.4134006787155693
165,1456704107019824,3.3488308704133787,5.840133531528657,8.548533970533905,8.492585496063796,2.492130685747594,1.0431183876792518,4.36373710763219,2.4728351810453595
166,1456704107025784,3.264699144049991,5.968429430838246,8.203497226361069,8.275412717744075,2.4924106342715153,1.0487808588194014,4.447725219801885,2.534199432071694
167,1456704107025784,3.1880416798862394,6.1031610848531095,7.855669980929388,8.038180478382879,2.4898394976561953,1.054860642353353,4.541036466659178,2.596506482250107
168,1456704107041675,3.119242648859845,6.240724910485189,7.509337668333546,7.785544142369943,2.4841563485070544,1.061159256102742,4.6426954334394175,2.658671741722217
169,1456704107041675,3.058579440257544,6.377232508362246,7.168638900921438,7.522238029271995,2.4751882871307807,1.0674857828979984,4.751510940453431,2.719545049446656
170,1456704107048670,3.006234047853152,6.508602347674899,6.837511185695596,7.252952101142015,2.4628589257883013,1.0736588523756696,4.866109068577066,2.777948624696995
171,1456704107048670,2.962310019285079,6.63066855854848,6.519643133501437,6.982217934202062,2.447193353381389,1.0795087160165002,4.9849722781762,2.832719247981335
172,1456704107063671,2.9268537680123496,6.7393044465357965,6.2184318383470885,6.714306173091123,2.4283187819903933,1.0848794884835904,5.106482459253155,2.8827525995070604
173,1456704107063671,2.8998785655211288,6.830557244042858,5.9369444434097565,6.453136722202173,2.406460668399788,1.0896315524048583,5.228965580739398,2.927047369804304
174,1456704107069670,2.881389039547591,6.900789379408949,5.677883360780724,6.202202518933336,2.3819348195858345,1.0936440911417742,5.350735991365951,2.964746629179412
175,1456704107069670,2.8714036275567025,6.946820164189001,5.443554992340744,5.964507750616922,2.3551365152065458,1.0968177389457832,5.470139278399363,2.9951741092643256
176,1456704107079192,2.8699722834786554,6.9660603942828185,5.235842079391117,5.742521494378943,2.326527834197348,1.099077390209251,5.585593445614076,3.0178634981543726
177,1456704107079192,2.877186861890062,6.956631241824664,5.056180071425341,5.538147629115469,2.296624183276599,1.100375217519549,5.695628451362283,3.0325793902199365
178,1456704107085197,2.8931820099903423,6.917458448910082,4.905538221324016,5.352711288906269,2.265980628125326,1.1006938669352477,5.798923640159578,3.039328961438714
179,1456704107085197,2.918125096886984,6.848333704977716,4.78440649005045,5.18696121099894,2.2351781953359158,1.1000496628953262,5.89434163379549,3.0383637423001253
180,1456704107101249,2.952194781218116,6.749937464708307,4.692789748139433,5.0410864638290835,2.2048100080170325,1.0984955323524297,5.980956459573783,3.030171210818187
181,1456704107101249,2.9955492627502394,6.623821081617948,4.630211085674088,4.914745541558454,2.1754670314915323,1.0961232751467695,6.05807367220742,3.0154565209091713
182,1456704107108210,3.048286790562049,6.472350094610053,4.595726060639951,4.8071057443808245,2.1477233185274174,1.093064755800532,6.125241090127706,2.9951154832791413
183,1456704107108210,3.110402141315735,6.2986137233585024,4.58794923868351,4.716891070917529,2.1221208558061915,1.0894915784269894,6.182249964093288,2.970200621655796
184,1456704107115211,3.181743240007387,6.1063075688163755,4.60509345703615,4.642437391917003,2.0991543204076377,1.0856128605662256,6.229127206477295,2.94188242074534
185,1456704107115211,3.2619719073140647,5.899597384403949,4.645021177644501,4.581754122396987,2.079256201221351,1.0816708532160153,6.266119594340251,2.9114077331838017
186,1456704107132211,3.3505321171582243,5.682971973863236,4.705306428383748,4.532591630686023,2.0627828205120387,1.0779343431867414,6.293671003825348,2.880056959827004
187,1456704107132211,3.446628361233189,5.461092907998328,4.783305305525883,4.492513268675138,2.050001831429332,1.0746899892797457,6.31239398604536,2.8491013203220565
188,1456704107139212,3.549215856234076,5.238647839793723,4.876232637538005,4.458970581208899,2.0410817883664008,1.0722319462818988,6.323037280394543,2.8197614157337485
189,1456704107139212,3.657003429298535,5.020212881440197,4.981241902624782,4.429380227034114,2.036084379481914,1.0708502789931424,6.326451105988422,2.7931683338464888
190,1456704107145212,3.768469019281596,4.810128054853961,5.095504831316691,4.401201257903897,2.034959873254473,1.0708187460397887,6.323552252318188,2.7703286145562087
191,1456704107145212,3.8818869077795815,4.612388473977277,5.216286623835282,4.372011316725536,2.0375463018879327,1.0723825534646625,6.315290918922765,2.7520943083469267
192,1456704107161212,3.9953651073962826,4.430552747056554,5.341012681818285,4.339579958202734,2.043572907733508,1.0757466592571927,6.3026207306799495,2.739139086955283
193,1456704107161212,4.1068908196988945,4.267669083687069,5.467323210102452,4.3019369791871105,2.052668364280533,1.0810651622280656,6.28647256479818,2.7319409945882733
194,1456704107168248,4.214381564232991,4.126218831912414,5.593112880689146,4.257433811341762,2.06437415310838,1.0884322415832945,6.267732273198771,2.7307720676487164
195,1456704107168248,4.315739516310289,4.00807680628772,5.716554065046474,4.204796825795439,2.078163172586683,1.0978750392283358,6.247222344316562,2.735694778595792
196,1456704107175226,4.408906779530979,3.9144877581407327,5.836103985115748,4.143172446887137,2.093463213058541,1.10934879741144,6.225687778322627,2.746565121145591
197,1456704107175226,4.49191969660635,3.8460584643560995,5.950498009649232,4.0721646631314545,2.109684478939918,1.122734469055028,6.203786537225678,2.7630421262563836
198,1456704107190233,4.562960810404768,3.802765050344929,6.058732490853269,3.9918655956440694,2.1262499817055533,1.1378389123695698,6.182084736546804,2.7846036108267853
199,1456704107190233,4.620407662093431,3.7839753065355204,6.16004085794883,3.9028794013331876,2.1426273865773755,1.1543977028182084,6.16105641933733,2.810567970964381
200,1456704107199234,4.6628780413153095,3.788485833363382,6.253866610486633,3.80633916589514,2.1583607177272337,1.1720805646697896,6.141087503982398,2.840121792427382
201,1456704107199234,4.689271354658692,3.8145737311208614,6.339836642202163,3.703915699035764,2.173100188593494,1.190499394495354,6.122483358101907,2.872352845445474
202,1456704107205234,4.698805578385696,3.8600621639171164,6.417737808336273,3.597816459002714,2.1866283686283787,1.2092187581757623,6.105479194738937,2.906287577087829
203,1456704107205234,4.6910491787967885,3.9223985133411463,6.4874986789688895,3.4907724662978765,2.198880992623589,1.2277686079463743,6.090251881629582,2.940931614521841
204,1456704107221236,4.665947502509376,3.9987431422122235,6.549177098115439,3.386011198816257,2.2099610225907864,1.2456588588160544,6.076930941609762,2.9753112753130426
205,1456704107221236,4.623843181636411,4.086066134163785,6.602952701231498,3.2872140856634657,2.220145104773608,1.262395398946873,6.065606021737554,3.0085138174644492
206,1456704107228236,4.565489872309213,4.181248786856793,6.649122196615076,3.1984581765104596,2.2298822446330475,1.2774970260331335,6.056328373340598,3.039724213521441
207,1456704107228236,4.492058298278268,4.281186139732865,6.688094360238151,3.1241426489078066,2.239785170725227,1.2905126586209956,6.049104831911379,3.06825661776201
208,1456704107235236,4.4051333973352484,4.382886517146911,6.720381644891467,3.0689018000013313,2.250615327569806,1.3010379998438002,6.0438839230301955,3.09357936226827
209,1456704107235236,4.306701483912944,4.483564109068537,6.746585999692619,3.0375068194703125,2.2632627315344434,1.3087307221282858,6.0405348174625155,3.115333052418627
210,1456704107250242,4.199126623582495,4.580721061231299,6.767377534579602,3.0347588584652097,2.278722115418982,1.3133232803173918,6.038821084277579,3.1333418555988866
211,1456704107250242,4.085115719788107,4.672216290245707,6.783465830240921,3.0653758290791866,2.2980668582464183,1.3146326427358015,6.038372475892049,3.147618286481845
212,1456704107259240,3.9676721554630685,4.756319034608227,6.795565075955424,3.133875227005833,2.3224220714771167,1.3125664679815685,6.038658844684745,3.158361803538316
213,1456704107259240,3.850038350200773,4.831745817886287,6.804355626896454,3.2444552224918937,2.352937922870445,1.307125496456751,6.038970458553193,3.165951516261276
214,1456704107265239,3.7356284231329555,4.89768003419757,6.810445447476385,3.4008763377202578,2.3907639627500266,1.2984021924687086,6.038408596723788,3.1709334030186485
215,1456704107265239,3.627953273566958,4.953773940932714,6.814335028460225,3.606346160736861,2.437024960896301,1.2865759684783986,6.035889534026162,3.174002716365671
216,1456704107281459,3.5305414894894542,5.000133666715761,6.816389052879054,3.863409661525432,2.4927985276652675,1.2719055779920483,6.030163919736989,3.1759825620521553
217,1456704107281459,3.4468600979954958,5.037288894035624,6.816817621039672,4.173847747094352,2.559094511191367,1.2547194161182287,6.019852291484919,3.1777997047441717
218,1456704107288459,3.3802390756086793,5.066149809931599,6.815669216862392,4.5385867544582945,2.636835860869449,1.2354045348619758,6.003496266734843,3.180458420218458
219,1456704107288459,3.3338029404187006,5.087954372938968,6.812836775752092,4.957621702300579,2.7268404731920155,1.214395199708693,5.979623886675889,3.18501297945561
220,1456704107295666,3.3104119438700983,5.104208916234709,6.8080772635416436,5.42995631639947,2.8298036266224695,1.1921617593936518,5.946826557372534,3.1925394251221073
221,1456704107295666,3.312614493299639,5.116624855573183,6.801044137966312,5.953562976105203,2.946280908034974,1.1692004356139551,5.903844003621054,3.2041076260680907
222,1456704107310672,3.342611495053038,5.127053953800313,6.791331008696289,6.525365562050455,3.076671790917922,1.1460244034926899,5.849652734524488,3.2207548359815927
223,1456704107310672,3.402232357578022,5.137424220822468,6.778523937367617,7.141247547989669,3.221204074542787,1.123156306827187,5.783552851766396,3.243461922019891
224,1456704107319676,3.4929214786904113,5.149678143604721,6.762259288438755,7.796086656456948,3.3799193025892373,1.1011221638287678,5.705247632788211,3.2731331180935466
225,1456704107319676,3.615733211856171,5.165714587994706,6.742283834061055,8.483816365002387,3.55265922902685,1.0804464433380787,5.614910295487398,3.3105797269426316
226,1456704107333715,3.7713327297159083,5.187335339336413,6.7185137787333185,9.197513840448647,3.7390534703720744,1.0616479054849282,5.5132331312999305,3.3565076964080856
227,1456704107333715,3.960000149761743,5.216196836013621,6.691089245441834,9.929513341739877,3.9385086419748627,1.0452356262116074,5.401456049273097,3.4115084546986436
228,1456704107341472,4.181635850321818,5.253767304242383,6.660420324211553,10.671543245187305,4.150199493824462,1.0317045411804149,5.281373871276939,3.47605192614319
229,1456704107341472,4.435765767658182,5.301289303633993,6.627220148895422,11.414883309348673,4.373062817812417,1.0215299413801844,5.155323352755197,3.5504804140764747
230,1456704107356714,4.721546103348865,5.359747610322257,6.592520218464962,12.150536833868362,4.605795061750958,1.015160630436164,5.026151484874474,3.6350020448907516
231,1456704107356714,5.037767056617915,5.429842333202749,6.557664078863853,12.869410591326963,4.8468544758289696,1.0130107959754404,4.89716665386744,3.729682648791344
232,1456704107357713,5.38285523708324,5.511967128588893,6.52427790140275,13.562494689924264,5.094468230418434,1.0154509177523998,4.772074236179203,3.834435379144952
233,1456704107357713,5.754874789739075,5.606192306419116,6.49421979280641,14.221035590366984,5.346644511038433,1.0227981707153817,4.6548983953109015,3.9490081704823905
234,1456704107370474,6.151528047470542,5.712252549959349,6.469512460047609,14.836698002585361,5.60118940847841,1.0353068027609742,4.549892215174547,4.072970139800024
235,1456704107370474,6.570157337501539,5.82953912395696,6.452265207417349,15.401713625608824,5.855728574627147,1.0531589372785621,4.461438637105754,4.205698785611887
236,1456704107379483,7.007750063336404,5.957097025165381,6.444591328434096,15.909015204117269,6.107733854521912,1.0764562213252582,4.393944691152355,4.346370015389842
237,1456704107379483,7.460949328595841,6.0936283195103735,6.4485264109650355,16.352353623082603,6.354555041186231,1.1052127194367418,4.351731372210922,4.4939527065593685
238,1456704107393402,7.926072237416979,6.237503382225741,6.465952292672907,16.726395422245425,6.593456448930266,1.1393494216579827,4.33892162250644,4.647208943222368
239,1456704107393402,8.399137579042835,6.386781680324946,6.498530427361087,17.026798903379763,6.821657486498973,1.1786906871589105,4.35932920920437,4.804700511254674
240,1456704107401402,8.875903942107277,6.539243345522383,6.547647204166353,17.250268138822683,7.036376185808964,1.222962890453898,4.416351349380139,4.964801845963389
241,1456704107401402,9.351918735647262,6.692432270110863,6.614372412887844,17.394584832078227,7.234874730748547,1.2717954675380407,4.512867563188765,5.125719414138476
242,1456704107416406,9.822578374347598,6.843710677950106,6.699430812331263,17.458618132907006,7.414506109094368,1.3247244574190968,4.651146834274573,5.2855173284866614
243,1456704107416406,10.283199750955788,6.990323943796402,6.803185765083977,17.442312336483013,7.572760699436171,1.3811985047154152,4.832765175714986,5.4421488015612365
244,1456704107417404,10.729102535348662,7.129473099277688,6.925633116630175,17.34665188399006,7.707310925123206,1.4405871458382926,5.058536085670801,5.593492999906403
245,1456704107417404,11.15570056604671,7.258391483246505,7.066402920724121,17.173602814505443,7.816051617578135,1.502191054165853,5.328456596778312,5.737396942605857
246,1456704107430199,11.558598767096887,7.374421686031378,7.2247662970342255,16.926031030506273,7.897134019924159,1.5652537993674907,5.641671224578735,5.8717219619586425
247,1456704107430199,11.933689926302705,7.475089148909498,7.399644543261901,16.607600824124173,7.948992441564693,1.6289746462762387,5.99645519502323,5.994393688617884
248,1456704107439395,12.277243813052886,7.558169200321112,7.589617595187326,16.222660648342398,7.9703639622228755,1.6925220130021348,6.390217359200627,6.1034538386714265
249,1456704107439395,12.585980384360589,7.621744966295512,7.792929630141343,15.776125022683498,7.960302802707734,1.7550473710428425,6.819522519526961,6.197111734692216
250,1456704107453194,12.85712021298886,7.664254685984394,8.007491686176028,15.2733608150215,7.9181917129369,1.8156995098102948,7.2801324158419805,6.2737934963541395
251,1456704107453194,13.088408978484878,7.684528270335835,8.230884015626922,14.720083683019665,7.843752760302602,1.8736391721557997,7.767064111475581,6.3321868017319165
252,1456704107461199,13.278117724189155,7.6818138682966595,8.46036293359612,14.122267743558494,7.737059290769163,1.928054124578052,8.27466398061237,6.371278916170123
253,1456704107461199,13.425024609069972,7.655795405450433,8.692877341632443,13.486069689411295,7.598549966085534,1.9781747675768366,8.796695146409702,6.3903856510635375
254,1456704107476611,13.528385611868085,7.606601637756364,8.925099347267318,12.817767529566288,7.429044975700699,2.023290376175149,9.326436099511392,6.38916937694853
255,1456704107476611,13.587901112779349,7.534806523124611,9.153472135255777,12.123713014346599,7.229763715385339,2.0627659267625207,9.856788177496352,6.36764507494098
256,1456704107477613,13.60368365480874,7.441419968621757,9.374276756213588,11.410295063585473,7.002342193885982,2.0960591877999875,10.380389619845458,6.326174271977356
257,1456704107477613,13.576230478686634,7.327867525041722,9.583717869338262,10.683909626595227,6.748847262515696,2.122737368654762,10.8897342435612,6.265447282329519
258,1456704107490477,13.506402722989034,7.195957669516719,9.778026801711949,9.950930480635423,6.471783938374201,2.142492240000468,11.377293410148402,6.186454547542454
259,1456704107490477,13.39541114189622,7.047836197889681,9.953578637580682,9.217676210086797,6.174092082925065,2.1551524066488246,11.835640568210106,6.090448329138041
260,1456704107506582,13.244805894278956,6.885928736070772,10.107018402730228,8.490370612265117,5.859129559789432,2.1606914539525786,12.257578005880411,5.97889669616371
261,1456704107506582,13.056466101418621,6.71287378668381,10.235389681099072,7.775096007102944,5.530640363220198,2.159231016200993,12.636265469563181,5.853432438676621
262,1456704107513195,12.832584235142413,6.531449560822349,10.336257262779869,7.0777406701764365,5.192707666363819,2.1510382870528795,12.965349859196362,5.715799855136825
263,1456704107513195,12.575641249871465,6.344498134174816,10.407814124768665,6.403942787668754,4.849693097151357,2.1365179173409476,13.239094035523358,5.567802121020442
264,1456704107521528,12.288370460160111,6.154850432299778,10.44896302611131,5.759034015397379,4.506164705260823,2.116198565510017,13.452500942875014,5.411251285892036
265,1456704107521528,11.973710966462578,5.965255367807632,10.459365085791028,5.147985792394668,4.166816811329664,2.0907146709149105,13.601427565707692,5.247922220025881
266,1456704107536526,11.634754122519448,5.778316202785711,10.439451910497725,4.575360977628362,3.8363850747267283,2.0607843927973897,13.682682913936661,5.0795113832356975
267,1456704107536526,11.274688146776263,5.596436764601884,10.39040278438136,4.045272451388813,3.5195598614961177,2.0271850393198694,13.694105772830698,4.907601214582173
268,1456704107537196,10.896746089560539,5.421779290326881,10.314092178439445,3.5613494759519035,3.220900653393715,1.9907275341397892,13.634620350737366,4.733631026976859
269,1456704107537196,10.504161486558072,5.256234440140995,10.213014435138104,3.126712006821402,2.9447538701324616,1.952231413633449,13.504269581903536,4.558875260251427
270,1456704107550482,10.100134973168194,5.101402717952133,10.09019240500763,2.743952647133672,2.695175947200442,1.9125015378062433,13.304226084326778,4.3844297413820446
271,1456704107550482,9.687814226708003,4.958585597779504,9.94907598565892,2.4151253820334104,2.4758628346022538,1.8723072483991883,13.03678033101553,4.211206323486983
272,1456704107559204,9.270288638737313,4.828784429998495,9.793435495731865,2.1417396398215645,2.290086452798575,1.8323642704127907,12.705305445505271,4.039935990808964
273,1456704107559204,8.850598831105469,4.712705659903293,9.627253760207427,1.9247578155995142,2.1406382415285563,1.7933193889629206,12.314198589010976,3.87118022258124
274,1456704107573204,8.431759548935272,4.610771472914424,9.454619682741079,1.7645944388408932,2.029779850303791,1.7557379350625009,11.868799938818098,3.705350102365675
275,1456704107573204,8.016793018570159,4.523135108938752,9.279624887968467,1.661115763974438,1.959201206184187,1.7200943011878487,11.375291395946382,3.5427323612227966
276,1456704107581514,7.608769053528795,4.449699830504588,9.106263885759402,1.6136394727280916,1.9299864552918824,1.6867658489637245,10.840578209368818,3.3835212553554346
277,1456704107581514,7.210848000099016,4.390140428790044,8.93833771686957,1.6209350043955,1.9425883821839407,1.6560304830098487,10.272157375244028,3.227854836539376
278,1456704107595939,6.8263223825657535,4.343926458293956,8.779361701957455,1.6812255179085267,1.9968117977735804,1.6280678699360087,9.677976617699546,3.075853705630976
279,1456704107595939,6.458652313595219,4.310346844545789,8.632479438082436,1.7921926036687663,2.091806125113246,1.6029639405129625,9.066287198964385,2.927659817340711
280,1456704107596939,6.11148871397819,4.288535843745206,8.500386613119819,1.9509847379394312,2.2260671095501054,1.5807180594812469,8.44549345981271,2.783472555650936
281,1456704107596939,5.7886781298385035,4.277500575256876,8.385268750824254,2.154230338721083,2.397447375051964,1.5612521253558629,7.8240021784505105,2.643579333667025
282,1456704107610227,5.49424421323082,4.276150568153757,8.288756483520617,2.3980563131936665,2.6031755852398333,1.5444208553554737,7.210075159259518,2.5083784388022887
283,1456704107610227,5.23234367524031,4.283329845307166,8.211900698231448,2.6781131433360734,2.8398842565856794,1.530022589301837,6.611688418110589,2.378392651018881
284,1456704107618947,5.007197879845404,4.297851824549704,8.155168384918074,2.989607677165076,3.1036466714228683,1.5178101082601936,6.036400862770053,2.254273132592943
285,1456704107618947,4.823004041916257,4.31853670158537,8.118458520577736,3.327344831075956,3.3900236816336315,1.5075012006902049,5.4912348173980305,2.1367939911712117
286,1456704107632942,4.683831358786897,4.34425014476792,8.101135966816942,3.6857794189619937,3.6941213327038622,1.4987889375916144,4.982570418345102,2.026838553256457
287,1456704107632942,4.593507322591543,4.373941321983336,8.102080363536958,4.059079269779844,4.0106600663781675,1.4913517162722696,4.516055743338866,1.9253786904622257
288,1456704107640942,4.555498605923627,4.40667774890784,8.11974667727394,4.441200553488006,4.334055828656405,1.4848630644185297,4.096534217428703,1.8334485810988599
289,1456704107640942,4.57278998383249,4.441674422645062,8.152234424893324,4.82597575812782,4.658512943136531,1.479001051376984,3.7279902576481474,1.7521141761683658
290,1456704107655947,4.647764075155783,4.478315232410613,8.197363215015303,5.207214118523547,4.978128294539709,1.4734570490213788,3.413513450964492,1.6824394899929596
291,1456704107655947,4.782084344326299,4.5161654282837365,8.252752578526051,5.578813586558816,5.287006131008226,1.4679435584162115,3.1552809478772157,1.625450746689738
292,1456704107656942,4.976583893268772,4.55497456878313,8.31590382470824,5.934882690420616,5.579382359831181,1.4622008372170274,2.9545572032447724,1.582099407544356
293,1456704107656942,5.231163136596489,4.5946697942930514,8.384281049147486,6.269869815221127,5.849756383736876,1.45600210992128,2.8117097789180217,1.5532251528696792
294,1456704107669943,5.544700274630077,4.635339791222938,8.455387898075823,6.578696487895712,6.093027341983403,1.4491572398308086,2.7262397333123873,1.539519981041936
295,1456704107669943,5.914979143194945,4.677210602843641,8.526836544984643,6.856890136568801,6.304630251730944,1.4415148876133532,2.6968250476932916,1.541494686227938
296,1456704107679449,6.338639256944612,4.720615321833617,8.59640549598622,7.1007105707418585,6.480666211048017,1.4329633352601998,2.7213753843393107,1.5594489871015056
297,1456704107679449,6.811152667052055,4.76596035448667,8.66208333015994,7.307263344487543,6.6180198208616074,1.423430256341017,2.797096282083766,1.5934464219475453
298,1456704107692965,7.326831669731835,4.813691150267674,8.72209666040962,7.474592697821261,6.714456612847245,1.412881710299664,2.920560879396201,1.6432948432160572
299,1456704107692965,7.878870423560789,4.864259954217363,8.774922591269126,7.601747315312101,6.768693741859377,1.4013205355879166,3.087787447092111,1.7085330626598694
300,1456704107700970,8.459422245482404,4.918097421028742,8.819288095131135,7.688813594295953,6.780438604831989,1.3887842030462645,3.29432122888416,1.7884240113612504
301,1456704107700970,9.059712977112286,4.975589211801091,8.85416009723371,7.736912939460894,6.750392262855651,1.3753421608892202,3.535319196016838,1.8819546858512328
302,1456704107715966,9.67018951549446,5.037058238466123,8.878730277051268,7.74816144594561,6.680217134407635,1.3610927650194458,3.8056363731926734,1.987843083277782
303,1456704107715966,10.280701403050692,5.10275289710838,8.892397926457438,7.7255923770282555,6.572470855399908,1.3461599795272485,4.099912535156245,2.104552230439462
304,1456704107716966,10.880712252430584,5.172841159964503,8.894753168447606,7.673044211269677,6.4305101974093715,1.33069008083621,4.412658409087018,2.2303112720458746
305,1456704107716966,11.459536727921991,5.247409737898385,8.885561866121686,7.5950193449910435,6.258370500675709,1.3148485698840788,4.738340945899419,2.363143393301574
306,1456704107729967,12.00659766256199,5.326466889852365,8.864752757959295,7.496520422388976,6.060627152412769,1.298817402197741,5.07146743945074,2.500900106210509
307,1456704107729967,12.5116964519268,5.409947077626685,8.83240656403876,7.38287268481027,5.842246054563819,1.2827925258052,5.406668072974248,2.641301182579908
308,1456704107738972,12.965288197478044,5.497715684718291,8.788745965270856,7.259541454900482,5.60842979713698,1.266981607113048,5.738776036288983,2.7819793520959633
309,1456704107738972,13.358751523423347,5.589572448553483,8.734124819804663,7.131953469295982,5.3644656454188455,1.2516017374625135,6.062904117884204,2.920528809226918
310,1456704107752968,13.684641938972801,5.685252965443409,8.669015087408926,7.005329278466527,5.1155806790982785,1.2368768518341209,6.37451685255833,3.054556519960307
311,1456704107752968,13.93691749332619,5.784428368820095,8.593990542319002,6.8845319539712415,4.866808543108497,1.2230345921978472,6.669497627253142,3.181735237161784
312,1456704107760974,14.11112670539106,5.886703800967478,8.509707156445101,6.773935538230817,4.6228713311290495,1.2103024627990013,6.944210197780748,3.2998570097725004
313,1456704107760974,14.204551216704848,5.991616545985757,8.416880919268209,6.677315360106148,4.388079211660651,1.1989033240576115,7.195553800613699,3.4068857859731794
314,1456704107776479,14.216298389636199,6.098634816977917,8.316264654260323,6.5977614675918606,4.1662495474144015,1.1890504352467313,7.421010671171889,3.5010074508357625
315,1456704107776479,14.147341083120125,6.207158243889497,8.208625702121388,6.537615782730884,3.9606463999023673,1.1809423042239084,7.618684357403315,3.580675367385057
316,1456704107777478,14.00050277835149,6.316520970561351,8.094725970137032,6.498433042060612,3.773940411609911,1.174757572521519,7.787326724151521,3.6446493724695244
317,1456704107777478,13.780386961674221,6.425997918531362,7.975305097928975,6.4809650729769785,3.608188136722554,1.1706501404079452,7.926351182880177,3.6920264229074093
318,1456704107790388,13.493251487016039,6.534814351107486,7.851066954329505,6.4851673058402035,3.4648290284300725,1.1687447705602314,8.03582972127381,3.722261730715845
319,1456704107790388,13.146831713987774,6.642158498778737,7.722669697503247,6.510225562736331,3.34469761442193,1.1691334887027645,8.116471774353624,3.7351799633961034
320,1456704107799381,12.750119315992073,6.747196703713311,7.590719896458966,6.554600296840108,3.248048018140291,1.1718731491765755,8.1695837647034,3.7309765287636885
321,1456704107799381,12.313105587880916,6.849090171421986,7.455771078687014,6.616084867335764,3.174587938394485,1.1769844813150214,8.197009264443883,3.7102091027990776
322,1456704107822487,11.846498798990458,6.947011738609232,7.318326309032407,6.691874384532839,3.1235194747267006,1.184452791999846,8.20105123162246,3.6737796809474417
323,1456704107822487,11.361425229296147,7.040160079951307,7.178843471999738,6.778642426100021,3.0935848206785574,1.1942303393241904,8.184379412118174,3.622907636565137
324,1456704107823188,10.869123380944213,7.127768065620294,7.037741435712439,6.8726244396670655,3.083115752369623,1.2062402523106326,8.149927360831589,3.5590944217966074
325,1456704107823188,10.38064050487739,7.209102395504259,6.895405439188422,6.9697081374815815,3.0900866137439778,1.2203817486827329,8.100784371055937,3.484080680923989
326,1456704107836491,9.906539979768995,7.283453436737423,6.75219064319472,7.065531768242805,3.1121707620323456,1.2365362782707472,8.040087889649906,3.39979688883343
327,1456704107836491,9.45662727143396,7.350116644261731,6.608423458554385,7.155590722115037,3.1468002938499433,1.2545740854964942,7.970921804883786,3.308309184844707
328,1456704107837188,9.03970132785689,7.408368939646355,6.464400842689652,7.235352098363796,3.1912287424362886,1.2743605619573892,7.896225410224429,3.2117625583572966
329,1456704107837188,8.66333748676546,7.457444389877154,6.320388324830895,7.300376134765566,3.242596478577297,1.2957616945947628,7.818716970348601,3.1123237414786065
330,1456704107850475,8.333707258655103,7.49651363385407,6.176618138496556,7.346442734141833,3.2979985391304503,1.3186479513654696,7.74083473511815,3.012126104537566
331,1456704107850475,8.055439465297594,7.524671153902133,6.033289243902402,7.369680489544231,3.3545543349738587,1.342896118689846,7.664697035802947,2.913218633312815
332,1456704107859196,7.831526033940906,7.5409338488862,5.890570842060374,7.366694534682744,3.4094781849311957,1.3683889117579653,7.5920818141799895,2.8175207203226473
333,1456704107859196,7.663274409848731,7.544253374542053,5.748610228510193,7.3346882825049375,3.460148999339035,1.3950125368577588,7.524424640291428,2.7267840173382716
334,1456704107873232,7.550307264997231,7.533543367870953,5.60754500300563,7.271572743378069,3.50417676295436,1.422652655548136,7.462833058314158,2.6425619949182555
335,1456704107873232,7.4906090200359925,7.507721120461753,5.467519250564413,7.176055981148202,3.5394628648923345,1.4511893096827182,7.408114057819565,2.566187218177659
336,1456704107881463,7.480617638090337,7.465761726129296,5.328703361051384,7.047705154222322,3.564251066224677,1.4804913599165317,7.360810638796458,2.4987557962156624
337,1456704107881463,7.515359239569723,7.406761427889995,5.191317235271805,6.886975237926803,3.577166247674792,1.5104109546098143,7.3212428070780895,2.4411181066753196
338,1456704107896468,7.588622400975635,7.33000605954573,5.055656344153273,6.695201757319717,3.5772390024772873,1.5407785192488788,7.289547963159836,2.393874801254586
339,1456704107896468,7.693168442107796,7.235040170052728,4.9221194572730385,6.474558476893528,3.563915260809498,1.571398714135985,7.265715825816154,2.357377245816337
340,1456704107897670,7.820973320673276,7.121732352736554,4.79123615108915,6.227983821113921,3.537051091382573,1.6020477052626276,7.249614140660584,2.3317318070193696
341,1456704107897670,7.963495719531761,6.9903321682445405,4.663691761979479,5.959081549853363,3.4968935591595005,1.632471926715586,7.241003367088077,2.3168075868960516
342,1456704107910795,8.111964440744586,6.841513979915688,4.540347366825538,5.672002153022683,3.4440491629751495,1.6623883401960946,7.239540526661334,2.3122472841717925
343,1456704107910795,8.25767638783388,6.676403507945669,4.422252583196807,5.371311772491127,3.3794420297666528,1.691486097191752,7.244773772731986,2.3174809618440344
344,1456704107918469,8.392294464392796,6.496584279964789,4.310649375750925,5.0618553207599435,3.3042646489482492,1.7194295163868119,7.2561302707683,2.331742715777379
345,1456704107918469,8.508132998889243,6.3040831809435645,4.206965607451103,4.748619944695632,3.2199243032008176,1.745862344498082,7.272901187482719,2.3540904331346835
346,1456704107935470,8.598417334510843,6.101336310224963,4.112797831949412,4.436604126293235,3.1279883040850796,1.7704132796217784,7.294228671583432,2.383428803408575
347,1456704107935470,8.657504599425625,5.891137746202209,4.0298836894759065,4.130696583383727,3.0301306794701435,1.7927026966476438,7.319099853775415,2.4185355059874674
348,1456704107941494,8.681054591543612,5.676574489947148,3.960064898978657,3.8355678817249297,2.9280822846861527,1.8123504926761669,7.346351849180645,2.4580902203405457
349,1456704107941494,8.666142780562634,5.460951026108938,3.9052419901298694,3.5555764719216465,2.823585598755777,1.8289849774886562,7.374690013614266,2.500705905076434
350,1456704107956764,8.611311302685285,5.247706812370759,3.867321752441445,3.294689857685473,2.718354790312131,1.8422527021360815,7.402719888972453,2.544961685852765
351,1456704107956764,8.516558314221635,5.040329735679449,3.8481582620884036,3.0564208766567154,2.614041083813427,1.8518290103254802,7.428991636165108,2.5894366716387354
352,1456704107964473,8.383270376580748,4.842268320210032,3.8494885156633156,2.8437786349713323,2.5122031434809484,1.8574289542260338,7.452054314935174,2.632744061189716
353,1456704107964473,8.214105539842286,4.65684535331134,3.8728641799147145,2.6592333481657406,2.414282093066847,1.8588180867060762,7.470516151966056,2.6735649508793538
354,1456704107971498,8.012836365906029,4.48717553348377,3.919581623772185,2.5046940489130693,2.3215807594004922,1.8558225277994456,7.483106048663722,2.7106812417633135
355,1456704107971498,7.784163076545735,4.336089515944824,3.99061301662495,2.3814978829762157,2.2352467581431874,1.848337617166632,7.48873111077678,2.7430069160236155
356,1456704107978497,7.533507605304831,4.206066224873923,4.086541680929003,2.290409737688008,2.156259251361504,1.8363344679947922,7.48652495747106,2.769616708589627
357,1456704107978497,7.26679913593411,4.099174663408432,4.207504997435169,2.2316312285025237,2.0854195419515325,1.8198638516415597,7.475882095824699,2.789770918317472
358,1456704107993507,6.990260550151661,4.0170259305965414,4.353147955632623,2.2048183208826444,2.023345851688848,1.7990570048228816,7.456474996928507,2.8029349507614634
359,1456704107993507,6.7102034882161306,3.960735856118434,4.522589984259361,2.2091068891785075,1.970472490315698,1.7741231521558762,7.4282527167511665,2.808792324734324
360,1456704108001686,6.432837962200396,3.9308985160602634,4.714407148225862,2.243145428548753,1.9270533035707114,1.7453438579083551,7.391422410018645,2.8072503045050805
361,1456704108001686,6.164100968805242,3.927570775161507,4.926631297604781,2.3051341696136745,1.8931690580381348,1.713064750650624,7.346417146100969,2.798437857654911
362,1456704108016688,5.909507373792764,3.9502678501555564,5.156767332175969,2.3928700651470116,1.8687384025879024,1.6776855358346114,7.293854712922543,2.7826961532611527
363,1456704108016688,5.674025306624383,3.997969745545464,5.401829354404373,2.5037973798739945,1.853532133185144,1.639649384445498,7.234492559300922,2.7605623254175415
364,1456704108024693,5.461977240227816,4.069138397370451,5.658396005525011,2.635063716113671,1.8471904959242,1.5994327485032909,7.1691836544877985,2.7327476922328655
365,1456704108024693,5.276966859508313,4.161745497530213,5.9226845474446,2.78358116499226,1.8492431404777236,1.5575364383094636,7.09883690616342,2.7001118592215874
366,1456704108030510,5.121830909454788,4.273311052373257,6.1906421970154195,2.9460919436257047,1.8591311786571771,1.51447843374137,7.024384157479485,2.6636340822593323
367,1456704108030510,4.998614630518166,4.400952520639166,6.458051941647328,3.119237474278398,1.8762306747403865,1.4707884636714748,6.9467540296131745,2.624383079428926
368,1456704108038757,4.908569161379761,4.541443937881614,6.720648737277828,3.299629501652385,1.8998767430234,1.4270039921590056,6.866851333364323,2.5834863215559984
369,1456704108038757,4.852169200280038,4.691284046576167,6.974240756393263,3.4839216380189297,1.9293872274793695,1.3836670128291726,6.785539883358851,2.542099696031394
370,1456704108053512,4.8291489650737764,4.846772248299884,7.214829381867687,3.668879691916195,1.964084814491938,1.3413210073021955,6.703626680343186,2.5013782786281453
371,1456704108053512,4.838554017457305,5.004091049006132,7.438721174648075,3.85144915593714,2.0033165339284285,1.3005074858390773,6.621846419920947,2.4624487842938043
372,1456704108069795,4.878806081786047,5.159393436898643,7.642625327287641,4.028818148361346,2.04646990132808,1.261761599967679,6.540846491109105,2.4263841304304563
373,1456704108069795,4.947777865044866,5.308893355575645,7.823731329683757,4.198473915711364,2.0929852397263384,1.2256064158845876,6.4611736193989575,2.3941804009662837
374,1456704108075536,5.042874976200585,5.448957200391086,7.979763791686569,4.358250879673104,2.1423638451573184,1.192545633554479,6.383264136004895,2.366736296325578
375,1456704108075536,5.161122024637324,5.576194005221824,8.109014285524824,4.50636827994494,2.1941716795003985,1.1630547954751809,6.307440429959321,2.34483489745461
376,1456704108084537,5.299249836877418,5.687541583317814,8.210352755748483,4.6414556677603755,2.248038359036009,1.1375712516052456,6.2339160065732155,2.3291273467551754
377,1456704108084537,5.453780874624053,5.780345450403484,8.283222479375167,4.762564803822971,2.303651460819385,1.1164833066058537,6.162810534038084,2.3201180037158533
378,1456704108099840,5.621110646417863,5.852427270012783,8.327622570047145,4.869167063863794,2.3607465515997714,1.1001191021489278,6.0941747092134335,2.3181508608795456
379,1456704108099840,5.797583944257511,5.902140129540733,8.344081252264079,4.961136375080726,2.4190937179255183,1.0887358733877168,6.028023334063135,2.3233974216658915
380,1456704108099840,5.979565639244149,5.928409005314631,8.33362222500756,5.038718772695733,2.47848159187607,1.0825102250926617,5.964374099133882,2.33584666912317
381,1456704108099840,6.16350633969178,5.930755718089859,8.297725647150939,5.102490453228383,2.5386998775638316,1.081529986035999,5.9032892869953155,2.35529809720896
382,1456704108112842,6.346003529981284,5.909308097980595,8.23828467833757,5.153306580855056,2.5995213183353796,1.0857880613269928,5.844917595727711,2.381358995167012
383,1456704108112842,6.523858872236322,5.864793112614072,8.157558056263424,5.1922433548445985,2.660684096954607,1.0951785872176096,5.78953312302388,2.4134471880966024
384,1456704108121842,6.694132044281972,5.798513872641662,8.058118715455088,5.220536176037202,2.72187587381757,1.1094956437414731,5.737568292871321,2.4508001732134694
385,1456704108121842,6.854190776556643,5.712311020001189,7.942797874359674,5.239517023463426,2.782720887456997,1.1284347626336795,5.6896376901694525,2.4924911087084785
386,1456704108135845,7.0017557254764355,5.608509726477117,7.814623603007136,5.250554216827585,2.8427715811020073,1.151597415957631,5.646550779808022,2.537451574249075
387,1456704108135845,7.13493764062431,5.48985387859394,7.676753136307542,5.254997649446899,2.9015060135484747,1.1784985605196987,5.609312974701247,2.5845005843230497
388,1456704108143844,7.2522632895592185,5.359429074546575,7.532399319503321,5.254132350006014,2.958331917882089,1.2085771704802375,5.5791156565158975,2.632379053496442
389,1456704108143844,7.352686315585514,5.220576345504257,7.38475299910423,5.249142697112712,3.012597767168275,1.2412095490926494,5.557316115647207,2.6797887239262907
390,1456704108158844,7.4355800557972005,5.076799176233114,7.236903985906908,5.2410886279299085,3.0636106300284247,1.2757250751000233,5.545408304552596,2.7254343451084773
391,1456704108158844,7.500711407539961,4.931666994112123,7.091763197432321,5.230893868692928,3.1106599788664813,1.3114238965756893,5.544985372632938,2.7680675648520676
392,1456704108159844,7.548197585657842,4.788718439266178,6.951988449174401,5.21934484623238,3.1530460232857904,1.347595938619591,5.5576953773519095,2.8065306142893442
393,1456704108159844,7.578450033276211,4.651367518536638,6.81991670330571,5.2070977705970725,3.1901107012342274,1.3835404688493016,5.585192094309089,2.8397976360334525
394,1456704108173064,7.592110992105265,4.5228155040505404,6.697506083142948,5.19469063687869,3.221269276889521,1.4185853948423675,5.629083095680513,2.867011550504727
395,1456704108173064,7.589988309109238,4.4059712857100575,6.586290957409787,5.182556789866308,3.2460405565185426,1.4521054531976052,5.690877078984432,2.8875146212402885
396,1456704108181592,7.572993495164976,4.303382679381459,6.487352753062926,5.17103729436356,3.2640738756648484,1.4835384600056665,5.771931919769924,2.900871197339426
397,1456704108181592,7.5420872061516055,4.217180772110007,6.4013081785390336,5.160390420830216,3.275171068083181,1.512398813970693,5.873404233036718,2.9068814133401903
398,1456704108196067,7.498235237060004,4.149038760290757,6.328315434424236,5.150797609726623,3.2793016606458956,1.538287534615998,5.996200498339281,2.9055849680016625
399,1456704108196067,7.442376844436434,4.100145987786739,6.26809776318002,5.142365966999878,3.2766098143543005,1.5608983580865436,6.1409293506617315,2.89725453036115
400,1456704108211069,7.375405842524997,4.07119707566957,6.219982361195084,5.13512771711936,3.267412177946055,1.580019795299524,6.307854822437223,2.8823788813324236
401,1456704108211069,7.298163561150618,4.062395255325205,6.182951352773349,5.129037287942692,3.2521866153823717,1.5955334774995813,6.496851144708189,2.8616366534685875
402,1456704108219137,7.211441638007482,4.0734684581899225,6.1557004526646075,5.123966823852462,3.2315524396193345,1.6074094554644494,6.7073607694111645,2.8358623607585316
403,1456704108219137,7.115992173412754,4.103696501209537,6.136700531192874,5.119700903111881,3.206243362821353,1.6156993090302088,6.938358076504478,2.8060069791043887
404,1456704108220070,7.012543198315309,4.1519477516764915,6.124257870315614,5.115931248441715,3.177074994519182,1.6205279431414636,7.18832148686212,2.7730954592212305
405,1456704108220070,6.901818139756094,4.21672376009861,6.116570320039841,5.112252401534918,3.1449092881324234,1.6220848283526714,7.45521638964721,2.7381834110651737
406,1456704108233105,6.784558157580357,4.296210403953835,6.11177827010843,5.1081595494512495,3.1106186346588918,1.6206152516921675,7.736490676380559,2.7023150675627505
407,1456704108233105,6.661545740786547,4.388334107649766,6.108010856143723,5.1030497442551805,3.0750522504780915,1.6164119212649732,8.029084188766014,2.6664845533750223
408,1456704108241070,6.533627404758006,4.490821780997924,6.103428923077369,5.096227660161589,3.039007149396403,1.609807042671634,8.329453316123862,2.631602312674007
409,1456704108241070,6.401733144302366,4.6012633073803935,6.096266803947415,5.08691691250518,3.0032053919314112,1.6011648274844088,8.633612214948979,2.5984682149638654
410,1456704108256114,6.2668903033466155,4.717175591406213,6.0848748028465165,5.074277774896732,2.9682785543377266,1.5908743792722797,8.937192285361817,2.567752412687737
411,1456704108256114,6.130229495138378,4.836067091202575,6.067763565086162,5.057431695166259,2.934759567021115,1.5793429871812408,9.235521263880873,2.5399845460951185
412,1456704108264107,5.992980358721727,4.955501364297586,6.043650604182628,5.035492341666465,2.903081343636753,1.566989892234644,9.523722403830833,2.5155514300668225
413,1456704108264107,5.856455680987919,5.0731577085577095,6.011508255759531,5.007602287706947,2.873581085470949,1.5542405066486527,9.796832752105823,2.494702951828863
414,1456704108279581,5.72202379582212,5.186886716794027,5.9706112254821075,4.9729740532715665,2.846508931200549,1.541520939108911,10.049937753191246,2.477565559638921
415,1456704108279581,5.5910707866844715,5.294758517778999,5.920580838608756,4.930933892792821,2.8220397123106484,1.5292526054342763,10.278317703230371,2.4641623644710546
416,1456704108280081,5.464955435166202,5.3951017118855775,5.8614223803447185,4.880966134117221,2.8002867230898434,1.5178467059705127,10.477600198195782,2.4544384195104962
417,1456704108280081,5.344960839635625,5.4865317038971035,5.793551730057049,4.822755059802512,2.7813163406364514,1.507698405689803,10.643911669649283,2.44828916452568
418,1456704108293120,5.232246979177878,5.567968234721826,5.717807877498258,4.756220745162103,2.765162013710032,1.4991806207921365,10.774020293487661,2.4455894329855186
419,1456704108293120,5.127808090725649,5.63864295341428,5.635448911587409,4.681545489293855,2.751835887514796,1.4926373475322483,10.865462105222596,2.4462200650588017
420,1456704108301088,5.0324377638700115,5.698098370596687,5.548130626327987,4.599188676390385,2.7413365321934275,1.4883764561219794,10.916642474166572,2.450089330603046
421,1456704108301088,4.94670361518634,5.7461794798457255,5.4578685430878116,4.50988964473951,2.733651994563491,1.4866618950677708,10.926906632935765,2.4571471322390788
422,1456704108316089,4.870932610558773,5.783019117098282,5.366985323497392,4.414659632638303,2.728758386633998,1.4877054142821358,10.896575631677964,2.4673910672748733
423,1456704108316089,4.805207535751886,5.809018042403926,5.2780460597520165,4.314764611291797,2.726615040070465,1.4916581919895517,10.826947013295182,2.4808644145448473
424,1456704108324120,4.749374618433522,5.824820671254835,5.193783958977435,4.2117008924375074,2.7271577132251177,1.4986029656479076,10.720261781318355,2.4976467073203157
425,1456704108324120,4.703061814995841,5.831287094151721,5.117018676287912,4.1071651778236,2.730291485703366,1.5085472989916817,10.579640726200505,2.5178378796374097
426,1456704108347118,4.665706807390934,5.829461478401703,5.050569199158267,4.003020444270344,2.7358848693983515,1.5214185195688588,10.408994240841254,2.541537289921442
427,1456704108347118,4.636593361159716,5.820536447288342,4.997163061991049,3.90125882273362,2.743766327447561,1.5370607489488672,10.212910525965306,2.568819308472131
428,1456704108348090,4.614894445131518,5.805812922235273,4.959343987879666,3.8039624679186175,2.7537239284774087,1.5552343844525127,9.996527422612784,2.5997075220318187
429,1456704108348090,4.59972038032593,5.786655230193605,4.939380705963651,3.713263284892666,2.765508441928047,1.575618387712032,9.765392871974354,2.6341498536631534
430,1456704108353338,4.5901700869691515,5.764441843056854,4.939180403224334,3.6313021693759775,2.778839891262894,1.5978157376730349,9.52531823498682,2.6719969037264995
431,1456704108353338,4.585383097138606,5.74051295508928,4.960210801062773,3.560188080345976,2.7934173763762438,1.6213623065389453,9.282227810373188,2.7129855185699188
432,1456704108361297,4.584589574885468,5.716117354564853,5.003434973426706,3.5019568928134523,2.808931741462221,1.6457391639413912,9.042007473554092,2.756729057072481
433,1456704108361297,4.587155510083012,5.692362379478198,5.06926259882446,3.4585297409592917,2.825080329444172,1.6703879685598109,8.810355661664827,2.8027151936294326
434,1456704108375492,4.592620657046787,5.670171430236583,5.157520482508629,3.4316705519198107,2.8415826675871525,1.6947287738531163,8.59264063808867,2.8503114561259637
435,1456704108375492,4.60072740235376,5.650253135189461,5.267444184969443,3.422942638500679,2.858195623393762,1.718179330995776,8.39376862407699,2.898778090848857
436,1456704108384507,4.611439227417913,5.633085033433103,5.3976916500966485,3.4336644654877575,2.874726528014771,1.7401748441367697,8.218067708311958,2.947287334235428
437,1456704108384507,4.624947733092436,5.618913011299391,5.546378902839095,3.4648650537810677,2.8910430303857413,1.7601871156996125,8.069192272909065,2.9949478045033597
438,1456704108399242,4.641667556996007,5.607766112063841,5.711137136199342,3.5172400626922,2.907078887209899,1.7777421123596548,7.950051871166622,3.040832524732156
439,1456704108399242,4.662219200409832,5.599485091053551,5.8891896676976465,3.5911103543131833,2.922835328003077,1.7924351883976866,7.862767077872807,3.084009094480869
440,1456704108400252,4.687400793930937,5.593762459916674,6.077446134215131,3.6863854848928974,2.9383779835982486,1.803943477518635,7.808653089522482,3.123570750114632
441,1456704108400252,4.7181508119449695,5.590191631941311,6.272609915151151,3.802534779169468,2.953829675271494,1.8120352166601141,7.7882301917773145,3.158667337599024
442,1456704108412998,4.755504235644439,5.588322622483443,6.471293391013087,3.9385684154297285,2.9693596564113625,1.8165759315632588,7.801258900532559,3.1885353192676718
443,1456704108412998,4.800544533924682,5.587721116801865,6.670134570039318,4.093030483836766,2.9851700833186308,1.8175314891277679,7.846796618132481,3.21252578041783
444,1456704108421285,4.854353324522023,5.588026624093452,6.865907925093217,4.2640054244133685,3.0014804617425406,1.8149680382584967,7.923271867080211,3.2301291614630263
445,1456704108421285,4.917958968793247,5.58900436800895,7.055621971744337,4.449138667009769,3.0185106724102675,1.8090488785296042,8.028571378815366,3.2409953004729792
446,1456704108436366,4.992284808240845,5.590585179773779,7.236596612000869,4.645671772771593,3.036463187002351,1.800028382067174,8.160134437685588,3.2449474020941813
447,1456704108436366,5.078097473404496,5.592888475913001,7.406515277272206,4.850491973599446,3.05550532676412,1.788243256398612,8.315048216469979,3.2419888085287223
448,1456704108444017,5.175955920476576,5.596225421022793,7.563450396175859,5.060195663904303,3.0757526334319585,1.7741015914298948,8.490138048127724,3.2323020069432586
449,1456704108444017,5.286162546463384,5.6010820552419744,7.705864456106728,5.271165020194246,3.0972543697465804,1.75807018547306,8.682047875765313,3.2162401156828095
450,1456704108459302,5.4087184570248725,5.608084747649123,7.832591440513581,5.479656491614032,3.119981961080475,1.740660582964474,8.887307897203614,3.1943119011090877
451,1456704108459302,5.543285259860432,5.617952123446246,7.942804135391084,5.681899486565872,3.1438211332793933,1.7224141632810166,9.10238820043898,3.1671618729508255
452,1456704108460001,5.689155671609786,5.631438267610471,8.035972184574343,5.874203193357919,3.16856864203091,1.703886583322752,9.323739271954164,3.1355470573769706
453,1456704108460001,5.845235126385968,5.649271847440349,8.111814714868618,6.053068990882583,3.193934546623992,1.68563190212016,9.547822653379448,3.100311810637159
454,1456704108473306,6.010036585798054,5.672095483374591,8.170250517258566,6.215305273184499,3.2195507158006276,1.6681867511489272,9.771136666326584,3.0623617669275665
455,1456704108473306,6.181690630361152,5.7004094968502175,8.211348361425324,6.358140955957362,3.2449857265642628,1.6520549384368615,9.990242040806512,3.0226378154801132
456,1456704108489771,6.357972366603304,5.734523788974329,8.235279869194928,6.479333683850341,3.2697657366805135,1.637692910085466,10.20179073711601,2.982090823238855
457,1456704108489771,6.536345635648983,5.77452077827023,8.24227724386657,6.577268683045473,3.293400383806633,1.6254965357015536,10.402559351228689,2.9416576263852283
458,1456704108495777,6.7140236633370725,5.820231151157406,8.232597933887337,6.651044016243968,3.315412289297365,1.6157896846099344,10.589487168139108,2.902238662295262
459,1456704108495777,6.888043980394097,5.871222951943335,8.20649795126294,6.700537645019316,3.3353683293142775,1.6088149853679625,10.759718354184715,2.864677571118346
460,1456704108504109,7.055354344800154,5.926803538685234,8.164215060455481,6.726451320196475,3.35291048847599,1.6047270464616152,10.91064741369156,2.8297431548726393
461,1456704108504109,7.2129055633210335,5.986033388291499,8.105962509326433,6.73032613705257,3.3677838574056143,1.603588318847888,11.039966254740055,2.798114160495562
462,1456704108519114,7.357746746099572,6.047750668234196,8.03193347639665,6.714525180240368,3.379859353102655,1.605367711223019,11.145710017730838,2.7703673569543352
463,1456704108519114,7.487118933608343,6.110605541344882,7.942315829770867,6.682180684791007,3.389149259746571,1.6099420005465492,11.226297875722688,2.7469692490998296
464,1456704108519778,7.598544027343959,6.173102928561657,7.837315958928026,6.63710628154271,3.3958145872878576,1.61710001252587,11.280565031183938,2.7282715247464533
465,1456704108519778,7.689906765411044,6.233651985324169,7.717189452167056,6.583677916504248,3.400164069198312,1.6265495005556139,11.30778318625999,2.7145100441455425
466,1456704108533780,7.7595275094272536,6.290620220122287,7.5822755572582325,6.526689063788446,3.402645174905273,1.6379266138554833,11.307668200915067,2.7058069601270214
467,1456704108533780,7.806223041794379,6.342390092206546,7.433031846241346,6.471187184156264,3.4038280619449854,1.6508077628151656,11.28037489988029,2.702175500765517
468,1456704108540786,7.829352170503975,6.387415848389149,7.270065267843055,6.422299559042298,3.4043840935863283,1.6647235300697367,11.226480139773935,2.703527073941383
469,1456704108540786,7.828843422350887,6.424278206155317,7.094155889769228,6.385057511849856,3.405061122161671,1.679174086695995,11.146956496977767,2.7096805386509417
470,1456704108555782,7.8052036511795855,6.45173443322303,6.906270430504327,6.364228092267374,3.406657882608867,1.6936454608778333,11.043139915245808,2.720373546084512
471,1456704108555782,7.759508405512418,6.468761555229973,6.707564298183189,6.364161390997384,3.409999563386945,1.707626023416163,10.916694870355645,2.735275722465626
472,1456704108563783,7.693376476484835,6.474590802265668,6.4993728545384775,6.388660153431798,3.4159160743892425,1.720622614228157,10.76958024161441,2.7540032563190904
473,1456704108563783,7.608931782236389,6.468731936053317,6.283194246930058,6.440876772840714,3.4252238405040667,1.7321757174613213,10.60401877074618,2.7761343484388683
474,1456704108579574,7.508755905192057,6.450986826343291,6.060666878685804,6.523241276737489,3.438711310332832,1.741873017819422,10.422472926581802,2.8012250817848274
475,1456704108579574,7.395834467409798,6.421452464944583,5.833544362857536,6.637422502001729,3.45712804698354,1.749360679290738,10.227629601348648,2.8288254572150127
476,1456704108580575,7.273500044429829,6.380514205148725,5.6036699410728055,6.78432316966484,3.4811773448254133,1.754351888892328,10.02239472767153,2.858495388362261
477,1456704108580575,7.145373367181961,6.32883024691325,5.3729513016936545,6.964107954989776,3.511512525396934,1.7566325608387523,9.809896686001705,2.889820277116231
478,1456704108593870,7.015303260210969,6.267308462221576,5.143335861786295,7.17626189465906,3.548737024913325,1.7560644204316218,9.5934948840487,2.9224255364371654
479,1456704108593870,6.887304436709294,6.197076767222288,4.91678606884744,7.419674692309564,3.593407995923083,1.7525858132608796,9.37678787211692,2.955989243451214
480,1456704108601870,6.765491281529375,6.119448289190327,4.69525421145547,7.692744854891701,3.6460426141370106,1.746210516744981,9.163614456839378,2.9902520655538822
481,1456704108601870,6.654005297663307,6.035882418539945,4.480656621343495,7.993496184337456,3.7071258077066114,1.7370247249712971,8.958041726449293,3.025023739975378
482,1456704108616871,6.556934029090211,5.947942705966962,4.274847844411461,8.319697969072585,3.777117785472516,1.725182371436582,8.764335229183068,3.060185660710093
483,1456704108616871,6.478220114796652,5.857252801777695,4.079595967428039,8.668979517798867,3.8564596114243193,1.710899035582981,8.586907990641715,3.095689386103229
484,1456704108624871,6.421560645065513,5.76545214896781,3.8965604276072976,9.038930062900342,3.9455752100761234,1.694444739413663,8.43024645216161,3.1315510297978033
485,1456704108624871,6.390298791832242,5.674153454233665,3.727273226346455,9.427177048214935,4.044868489046781,1.6761359268820686,8.298813333090738,3.167841644841821
486,1456704108638914,6.387311406976742,5.584903752330623,3.5731237718212916,9.831439048405077,4.154714557478799,1.6563268754665146,8.196930231805215,3.2046740095033237
487,1456704108638914,6.414897862531265,5.4991502512542,3.435346944627275,10.249552799210495,4.2754442798468215,1.6354007559298982,8.128645817764527,3.2421866056644584
488,1456704108639873,6.474676648843512,5.418211412769758,3.315013632628635,10.679476115793337,4.40732180403843,1.613760516728501,8.097597497697151,3.2805258299943416
489,1456704108639873,6.567496657211577,5.3432531552080835,3.213022917902865,11.119270043538567,4.550515407959055,1.591819714129932,8.106874827516426,3.319827545904154
490,1456704108652874,6.693369433376251,5.27526982592297,3.130095204361308,11.567065031921988,4.705062978549623,1.5699933689097691,8.158891986903482,3.3601991101069886
491,1456704108652874,6.851427351517266,5.215069702539423,3.0667657670509456,12.021017342490714,4.8708344287979095,1.5486889401790387,8.255274964565386,3.401703030305949
492,1456704108660874,7.0399111338409,5.1632650129590205,3.023378474101479,12.479262945050172,5.047494091608988,1.5282975599414228,8.396767247523293,3.44434329881104
493,1456704108660874,7.256188685692738,5.120266456401243,3.000079730600566,12.939876388083368,5.234466401230458,1.5091857235874053,8.583156292820892,3.488055144414872
494,1456704108676402,7.496805906471554,5.086281959043361,2.9968129154318954,13.400841225434817,5.430907958339,1.4916876608558767,8.81322235958806,3.5326985649024034
495,1456704108676402,7.757569055989521,5.0613193759891715,3.0133137485145762,13.860036528383205,5.63568858764585,1.476098650748041,9.084711345366804,3.5780556486660666
496,1456704108684395,8.033657379645861,5.045193360397934,3.0491072867747735,14.315241139737731,5.847383489387465,1.4626696077816104,9.394333385874365,3.623831386491967
497,1456704108684395,8.319763726726679,5.037537278473516,3.103507593357029,14.7641541913679,6.064278080976196,1.4516033020609176,9.73778845432686,3.6696574442941854
498,1456704108699171,8.610259504970715,5.037821171293565,3.1756213112639124,15.204427762384363,6.284386482449088,1.4430525195856112,10.109819094955425,3.71509823849482
499,1456704108699171,8.899378509125617,5.045376109306339,3.26435621602403,15.633706034419083,6.505483734802183,1.4371203232773497,10.504289328343894,3.7596585854695013
500,1456704108700198,9.181412289722562,5.0594242157068,3.3684354038744453,16.049664870081926,6.725150789149413,1.433862382829888,10.914288013590246,3.802792137267329
501,1456704108700198,9.450908310150814,5.079112672641639,3.486417314187678,16.45004598067816,6.940830268239316,1.433291139828317,11.332254427929087,3.8439097780046003
502,1456704108712912,9.702861752209245,5.10354942806757,3.616721427249047,16.832680821886232,7.149890305393148,1.435381393821588,11.750123433900432,3.8823872375957253
503,1456704108712912,9.932892684965157,5.131838087021416,3.7576591992547907,17.195501353277237,7.3496935176909375,1.4400767649040984,12.159487469317114,3.9175715394319313
504,1456704108721912,10.137401724682627,5.163109547774349,3.9074695072707133,17.536537241692308,7.537668071593245,1.4472964273382842,12.551772620112557,3.948786530031448
505,1456704108721912,10.313698152230202,5.196548265194518,4.064357561352291,17.85390067386233,7.711377505426933,1.4569415289376337,12.91842581434556,3.975338347680621
506,1456704108736279,10.460094480044917,5.231411474928934,4.2265359721683025,18.145760076648827,7.868585529482664,1.4689008193018351,13.25110956948229,3.996521998752021
507,1456704108736279,10.575961752616383,5.267040287470478,4.392266492971356,18.410303781946787,8.00731192355766,1.4830551695442904,13.541900014987494,4.01163025959329
508,1456704108743955,10.661741490055043,5.302862383914033,4.559900839573143,18.64569595102089,8.125876507500411,1.4992807869599647,13.783483250461147,4.0199660476723516
509,1456704108743955,10.718912794505478,5.3383870415551735,4.727918818461371,18.850030432768587,8.222930034659282,1.5174509640826979,13.969344444998596,4.020859139546799
510,1456704108757921,10.749915433841778,5.373194021087888,4.894961657499991,19.0212916075654,8.297472888459607,1.5374362402326478,14.093943712526302,4.013687495909263
511,1456704108757921,10.758031185432879,5.406918157875803,5.05985800831431,19.157332065048493,8.348863585105876,1.5591030259584004,14.152873148888549,3.9979025665882006
512,1456704108765914,10.74722725127274,5.439231356579793,5.221640007442374,19.255874824147522,8.376819084266836,1.5823110324038405,14.142990343011771,3.9730571341648253
513,1456704108765914,10.72196807092212,5.469823384157809,5.379547586367266,19.314544311768138,8.381408404270626,1.6069100862588148,14.062524413576257,3.938833795413614
514,1456704108772917,10.687004928634412,5.498382655648601,5.533020896740032,19.330926810017164,8.363040623692306,1.632736966031613,13.911150630041133,3.8950720437825224
515,1456704108772917,10.6471550192775,5.524578084518845,5.681682537384888,19.30265773230725,8.32244803164319,1.6596127980190956,13.690029367948682,3.841791892017498
516,1456704108781697,10.607082279599224,5.548042806673946,5.825312446272461,19.227529594998604,8.260664563041303,1.687341400275707,13.401805733000755,3.7792120059099563
517,1456704108781697,10.571091558391302,5.568360206143395,5.963818613375943,19.10361123787387,8.178998590138095,1.7157088261692894,13.050568376775601,3.7077605799910276
518,1456704108796150,10.542946269121412,5.58505251555592,6.097206444640101,18.929367059606534,8.078998272942062,1.7444842567815688,12.64176885804801,3.6280778004902228
519,1456704108796150,10.52571789709112,5.597572512571075,6.225549048610403,18.70376594401312,7.962407959937754,1.773422290302147,12.182104614828814,3.5410095967444084
520,1456704108804371,10.521673618692818,5.605299226062465,6.348960143579348,18.42637252139034,7.83111577023398,1.8022665219721639,11.679368791964388,3.447593234925559
521,1456704108804371,10.532205935827381,5.607538819983434,6.467570716280069,18.09741655067706,7.6870946130981235,1.8307541242638377,11.142270174922723,3.349035957111418
522,1456704108819372,10.557805955051325,5.603531954985235,6.581509940313934,17.717838460274002,7.532340485177021,1.8586210269968493,10.580227566960934,3.2466882327972324
523,1456704108819372,10.598079929850362,5.592468950545962,6.690890173819951,17.289310486736976,7.368812477838516,1.8856073106491407,10.00314480253731,3.142013305768507
524,1456704108820380,10.6518068224449,5.5735137533106345,6.795795298798665,16.81423342996427,7.1983785637976725,1.911462498059868,9.421174017166711,3.036554640803694
525,1456704108820380,10.717032731827679,5.545836892384674,6.896271532224366,16.29570904812329,7.022770220753599,1.935950467795702,8.844475169833517,2.9319025837974007
526,1456704108833379,10.791196024682716,5.508656425399047,6.992320103322685,15.737488535007003,6.8435477267838865,1.9588536945387531,8.282979361110801,2.829661058422685
527,1456704108833379,10.871275121879831,5.461284684742893,7.083891472241901,15.143898867796102,6.66207683128756,1.9799764975883403,7.746162564155774,2.7314146024975976
528,1456704108841160,10.953949584805203,5.403177730640343,7.17088081311975,14.519750201711638,6.4795165367067415,1.999147007662727,7.242835191536526,2.638695738808165
529,1456704108841160,11.035764755714366,5.333983997293648,7.253124392018658,13.870228094244666,6.29681693690553,2.016217662481763,6.780951764613201,2.5529527075903373
530,1456704108856442,11.11329072098236,5.2535886765065,7.33039648228368,13.200774707801504,6.114725532488819,2.0310641841647232,6.367444183358996,2.475517898859139
531,1456704108856442,11.183267512985104,5.162150740234458,7.4024067794473245,12.5169640328399,5.933800287711467,2.043583139130864,6.008081740065894,2.4075777084169983
532,1456704108864156,11.242729973829652,5.0601299595386235,7.4687988647376695,11.824377251117076,5.754427939509807,2.053688326364819,5.707360738951395,2.3501447970552447
533,1456704108864156,11.289107493255054,4.948301776587265,7.529150772890015,11.128484794150733,5.5768465175280255,2.061306377430199,5.468426034689866,2.304033780469603
534,1456704108878947,11.32029584809447,4.8277585391738,7.582978763921994,10.434541162268015,5.401171249571276,2.0663720275739443,5.293025923868484,2.269841255227333
535,1456704108878947,11.334700205468344,4.699896501882826,7.62974485873991,9.747497366866616,5.227422759488635,2.068823482507959,5.181500694509523,2.2479308402508815
536,1456704108886448,11.331249541244196,4.5663890029137235,7.668867798806718,9.071934278265044,5.0555560089191145,2.0685982064798814,5.132803822486731,2.2384236471696517
537,1456704108886448,11.309383476525365,4.429147095993592,7.699736293414047,8.412018568540296,4.885488293468215,2.0656293772777796,5.144553495216564,2.241194333260197
538,1456704108895243,11.269013539363987,4.290269558720295,7.721723139302381,7.771481623053559,4.717124904555979,2.05984320046879,5.2131112366381815,2.255872647931813
539,1456704108895243,11.21046232627364,4.1519846660990005,7.7341991526134874,7.153620825385909,4.550381558478985,2.05115721984886,5.333684180557152,2.2818501592355984
540,1456704108901548,11.134385422185936,4.016586398639776,7.736546660280568,6.561321876648675,4.385203172215541,2.0394797252901733,5.500447843362179,2.3182916746319124
541,1456704108901548,11.041681703770841,3.88636776389479,7.728173250340707,5.997100119008423,4.221579036217096,2.02471036907546,5.706686642005977,2.3641508040263606
542,1456704108916548,10.933397965606655,3.763553719009744,7.708527283063338,5.463158054883813,4.059554922666803,2.0067421177507487,5.944949609776259,2.418189165613765
543,1456704108916548,10.8106341407447,3.6502360298067824,7.67711700689486,4.961455336896994,3.899243094027517,1.985464635654736,6.2072188670884385,2.4789988564563306
544,1456704108924548,10.67445566659098,3.5483123828638554,7.6335347092893215,4.493786553655576,3.740831382342667,1.9607691229475728,6.485088587870499,2.5450279542658203
545,1456704108924548,10.525819299827502,3.459431994763565,7.577486138689033,4.061861379587204,3.5845923342207877,1.9325545494234864,6.769952449337807,2.614608977033024
546,1456704108938248,10.365517788519677,3.384949664373922,7.50882384367031,3.667381285938414,3.4308928542397346,1.9007351599173603,7.0531976790227775,2.685990370937483
547,1456704108938248,10.194147475267508,3.3258897457917858,7.427581698859436,3.3121070784103117,3.280204057670947,1.865249091077181,7.326403576987338,2.757371150629026
548,1456704108946247,10.012101204305992,3.282921006064887,7.3340072858053125,2.997912005180562,3.1331104483854633,1.8260679199393037,7.581541589561378,2.826938728270669
549,1456704108946247,9.819586872595101,3.256342811951841,7.228589155192183,2.726816033426593,2.9903172291628497,1.78320691616452,7.811172710047292,2.892909750157292
550,1456704108953247,9.61666985853005,3.2460826137582,7.112076905515104,2.5009980727310013,2.85265456244903,1.7367356527480422,8.008636697928793,2.9535734711760755
551,1456704108953247,9.403335735300507,3.2517044055184434,6.985492770647861,2.3227843264704173,2.7210778554003543,1.6867884556554653,8.168227001634003,3.0073368770265962
552,1456704108961247,9.17956842503373,3.2724278163256444,6.8501336413734535,2.194612415415178,2.596663458081632,1.6335740062269326,8.28534552690789,3.052770386666673
553,1456704108961247,8.94543839274623,3.3071575432918383,6.707562395528233,2.118972256306893,2.480599361623614,1.5773833278027596,8.356632019832507,3.0886525140693
554,1456704108976257,8.70119531603151,3.354522661278774,6.559587637560802,2.0983257636558177,2.3741705477267403,1.5185954217912205,8.380063160759812,3.114011399243815
555,1456704108976257,8.447359363273646,3.412924853483612,6.408231728580948,2.135008272426558,2.2787387132581016,1.4576799519699046,8.355016397796005,3.1281607419265764
556,1456704108984484,8.184804653819691,3.4805940269249596,6.255688024842003,2.2311152643849943,2.195716343109855,1.3951965884344604,8.282293794268506,3.1307275212385464
557,1456704108984484,7.914828069500288,3.5556493753635596,6.104269016402772,2.388378638256759,2.1265355770678487,1.3317908999110768,8.164102540802956,3.1216691128014915
558,1456704108998684,7.639196667838069,3.6361637967078315,5.956347360370185,2.608037386626923,2.072612862937881,1.2681869887921229,8.003991277568195,3.1012780502193737
559,1456704108998684,7.36016756454449,3.720229533021145,5.814291856193448,2.8907080074499563,2.035310766606532,1.2051773304600173,7.806744128105933,3.0701734921283372
560,1456704109006688,7.080475621671721,3.8060228080868113,5.680400526938437,3.236260204395003,2.015898399609612,1.1436104311286348,7.578236524937174,3.029279184181549
561,1456704109006688,6.803287173703889,3.8918650645666073,5.556833174975176,3.643703473545228,2.015511826507511,1.0843769102341407,7.325258255511835,2.979788412642843
562,1456704109013471,6.5321221162127925,3.976278346369067,5.445545869427094,4.111090110843535,2.0351157126422112,1.0283944683938202,7.0553097975522645,2.9231173898740375
563,1456704109013471,6.270750495521295,4.058032681115483,5.348229739111367,4.635439969939109,2.075467436061133,0.9765920126485252,6.7763782168925975,2.8608496325578896
564,1456704109021686,6.02307180614195,4.136183983348074,5.266256334065562,5.212691869634948,2.137084838843533,0.9298930805087842,6.496699164362996,2.7946747812370574
565,1456704109021686,5.792985366196521,4.210101646292873,5.200631721173501,5.837685896220306,2.2202186354745224,0.8891986774171464,6.224512241256085,2.726325671000109
566,1456704109044473,5.584259303016975,4.279485199982607,5.151961261955305,6.504180039559466,2.324830216907931,0.8553696846287536,5.9678179572045895,2.657517331953895
567,1456704109044473,5.4004047298417595,4.344369214765559,5.120426663639248,7.20490364730815,2.450575264748363,0.8292090452164157,5.734144982002273,2.5898911482773035
568,1456704109045687,5.244560943237423,4.405115552819023,5.105776562849646,7.931648972818876,2.5967933112501815,0.8114439650444953,5.530336014518084,2.5249667868009675
569,1456704109045687,5.119396826464427,4.462392575623232,5.1073316336725965,8.67540053800537,2.76250318436705,0.8027083860229399,5.3623595097100445,2.4641038191365383
570,1456704109058473,5.0270329244775045,4.5171418399786125,5.124004791940021,9.42650022391454,2.9464041472460587,0.8035260305697474,5.235153066588337,2.4084742463796722
571,1456704109058473,4.968987710629935,4.570533607038686,5.1543363022606865,10.174844217741343,3.146882453906058,0.8142943852042434,5.1525027691521075,2.3590464061708216
572,1456704109066686,4.946150316700283,4.623912926115795,5.196542543853902,10.910106398058392,3.362022994937682,0.8352700590077974,5.116961323734273,2.316580041133703
573,1456704109066686,4.958780507910417,4.678738393067198,5.2485761148204295,11.621981324050399,3.5896256995119935,0.8665559889524644,5.12980645107583,2.2816316990271206
574,1456704109082199,5.006535133076587,4.7365160782064395,5.308194152874608,12.30043845110796,3.8272263403055082,0.9080909558770998,5.1910396649928074,2.2545691381953117
575,1456704109082199,5.08851885731344,4.798731359144332,5.373031374292143,12.935977541462576,4.072121275592294,0.9596418238805231,5.299424378816742,2.23559297784664
576,1456704109083817,5.203355825562182,4.866781309576841,5.440674260768774,13.519873877084107,4.321395488449741,1.0207988473513674,5.45256126501082,2.2247634011149904
577,1456704109083817,5.349278075093826,4.941910041860356,5.5087328360254295,14.044401381308042,4.5719532534147955,1.0909743387181932,5.646997805713935,2.2220293131749593
578,1456704109096491,5.524225952284618,5.025149249830233,5.574906605141448,14.503022668032651,4.820551132357583,1.1694049598901928,5.87836781214997,2.2272571238053094
579,1456704109096491,5.725955316018943,5.117266256411862,5.637041842303608,14.89053761761534,5.063833832936621,1.2551578597818756,6.141555374917805,2.2402564524180537
580,1456704109104760,5.9521458576343065,5.2187219866413574,5.69317871100113,15.2031858224417,5.298374413274559,1.3471407931241663,6.43087646196302,2.260800622875576
581,1456704109104760,6.200504589725529,5.32964115022079,5.741588198903801,15.438701929507019,5.5207208117418665,1.4441162092610835,6.740270424429065,2.288640728058171
582,1456704109118759,6.468858609357207,5.449796342017926,5.780799708952969,15.5963255155729,5.7274504311402135,1.544719132633309,7.063493166845185,2.3235130735003713
583,1456704109118759,6.755231641332542,5.578606864013052,5.809620109599059,15.676768776697667,5.915233687568042,1.6474785478516298,7.39430385193889,2.365140670847937
584,1456704109126757,7.057899595235921,5.71515207663392,5.827144667054993,15.682146897162676,6.080906337503592,1.7508419933949992,7.726637762155966,2.4132299419503993
585,1456704109126757,7.375421372866744,5.858198148197827,5.832760252794667,15.61587773313832,6.221549206164586,1.8532031090234784,8.054759109890838,2.4674639517909527
586,1456704109142494,7.7066423744943755,6.00623628039192,5.826141724667137,15.482558510830277,6.33457284761304,1.9529318743000728,8.373388988815078,2.5274934978461903
587,1456704109142494,8.050669747835215,6.1575299486606845,5.807243068042239,15.287826858779088,6.417803897055244,2.0484071719338552,8.67780540688619,2.5929273128920527
588,1456704109143494,8.406820690183594,6.3101684008437475,5.776285303789754,15.038212027573179,6.469569510256942,2.138051157098827,8.963914598935297,2.663322441280191
589,1456704109143494,8.774547783006048,6.462123478445778,5.733743141959354,14.740980293079216,6.488776160132748,2.220364781592717,9.22829523358229,2.7381755781204986
590,1456704109156755,9.153347552571178,6.6113067471091975,5.680331903468175,14.403976522623168,6.474978902959135,2.293963712672935,9.468218909127716,2.8169159783844733
591,1456704109156755,9.542659658476165,6.755624119309089,5.616995390017487,14.035461810183104,6.428436917921971,2.3576137372330064,9.681651034549423,2.8989005179795067
592,1456704109164495,9.941764447122182,6.893025778259867,5.544894305644873,13.64394547758399,6.3501508113141405,2.410264488003202,9.867236045038881,2.9834115108907486
593,1456704109164495,10.349686321881293,7.021550175733951,5.465393866898594,13.238009403276536,6.241877167984721,2.4510799918362154,10.02427022694287,3.069657789586234
594,1456704109178516,10.765109519811729,7.139361829133684,5.3800487179495375,12.82612409600307,6.106116472079124,2.4794642729520815,10.152664407348544,3.1567792725990125
595,1456704109178516,11.186311581624196,7.244783278712866,5.290583252213056,12.416458960317074,5.946072015629192,2.4950802358314705,10.252897860652274,3.243854838537565
596,1456704109186646,11.61111845037828,7.336321888754936,5.198865775373281,12.016692789747738,5.7655795919912025,2.497860383399936,10.32596456282928,3.3299129435323747
597,1456704109186646,12.03688399830372,7.412692348356515,5.106875502911424,11.633833274976762,5.569010137144644,2.48800852951567,10.373313332567843,3.4139442307673233
598,1456704109201732,12.460495608684685,7.472835789910981,5.016662137471792,11.274055268341835,5.361149593751452,2.465992374365671,10.396783857335658,3.4949155173448756
599,1456704109201732,12.878405850204665,7.515936319335091,4.930298695928992,10.942566674396742,5.147061855657845,2.43252742983704,10.39854077105801,3.571784982891315
600,1456704109202732,13.286688541746113,7.541435412752932,4.84982926550212,10.64350876939684,4.931941490153081,2.3885532064878627,10.381007882105964,3.6435189046697434
601,1456704109202732,13.681116481913902,7.549044205346509,4.777214236759481,10.379895243229434,4.7209629865527525,2.335202863628428,10.346804378014623,3.7091105851174233
602,1456704109216733,14.057258224923725,7.538753363050205,4.714276034684187,10.153591789777472,4.5191327727989075,2.2737677640475353,10.298684372125123,3.767602025513357
603,1456704109216733,14.410591778867463,7.510839981529857,4.662648371458226,9.965335681932958,4.331149471245224,2.2056585280402343,10.239480729175417,3.8181084722736425
604,1456704109224733,14.736632826652984,7.465870608653568,4.623731661559239,9.814792297321974,4.161276969417226,2.1323641638412254,10.172053826277116,3.85984538466848
605,1456704109224733,15.0310737484692,7.404699015282681,4.598656625994375,9.700643204373636,4.013233914549901,2.0554106928304456,10.099245504984854,3.892156771431939
606,1456704109238751,15.289927935407988,7.328457014284411,4.588257460452049,9.620698868567622,3.8901023081490584,1.9763205245665059,10.023837764608524,3.914543269245941
607,1456704109238751,15.509672020204277,7.23853669105439,4.593055358314198,9.572028863178444,3.7942570803647406,1.896573755748074,9.948515024602647,3.92668787825882
608,1456704109246737,15.687376786435099,7.136562936272685,4.613252633521175,9.551103381460004,3.727317831423528,1.8175725118281514,9.875828410163548,3.928477087008581
609,1456704109246737,15.820816076303649,7.024356185738944,4.64873714777248,9.55394091828976,3.690123216876682,1.7406093064335912,9.80816047439016,3.9200153245971836
610,1456704109260743,15.908542885761825,6.903886567808059,4.699096212249938,9.57625754342761,3.6827276834409046,1.6668401472798209,9.747688844678871,3.9016312238738595
611,1456704109260743,15.949923903822311,6.777221695666657,4.76363858370321,9.613613156556715,3.7044195143646195,1.5972628761492575,9.696347455486883,3.873874912300106
612,1456704109261739,15.945128155389533,6.646470730915435,4.841422673131168,9.66154970079348,3.7537584916003457,1.5327010817939628,9.655784484627354,3.837506357189918
613,1456704109261739,15.89507094374745,6.513727247801546,4.931288850809428,9.715715799284219,3.8286309291123186,1.473793822504131,9.62731691322336,3.793475575691768
614,1456704109276560,15.801319339138924,6.381013246566584,5.031893883959947,9.771972179296483,3.92631943179888,1.4209912426195528,9.611882653437918,3.742896086575848
615,1456704109276560,15.66596943170971,6.250226572522607,5.141745923743783,9.82647325625646,4.043584631767848,1.3745559524680886,9.609992301749472,3.6870132138507064
616,1456704109284787,15.491508453144123,6.1230938916912505,5.259238874221458,9.875722657333565,4.17675635679709,1.3345698218978466,9.621683675804054,3.627168829933862
617,1456704109284787,15.280676146658191,6.001131110510327,5.382685410216478,9.916603675363099,4.321831972842783,1.3009456532787507,9.646483141391986,3.5647639313527075
618,1456704109298733,15.03633899107297,5.885612685391088,5.510348346563198,9.946388638818851,4.47457984550868,1.2734430662442777,9.68337806062054,3.5012200904842135
619,1456704109298733,14.761388537461858,5.777550756552994,5.640470384288495,9.962733282583677,4.630646034054595,1.2516878453339573,9.730804542597879,3.4379404846717114
620,1456704109306755,14.458671926833691,5.677684599687912,5.771302422145906,9.963663147590102,4.785662475932357,1.235193930577905,9.78665436567907,3.3762711347112115
621,1456704109306755,14.130958904904439,5.586480559570782,5.901130643301567,9.947558757481525,4.935354864425061,1.2233871237972438,9.848304521536951,3.3174632237225103
622,1456704109321745,13.78094549434818,5.504142340897049,6.02830243726918,9.913144998273198,5.075648063344726,1.2156294839898574,9.912672007121262,3.2626376900879257
623,1456704109321745,13.41129033506736,5.430631205216403,6.151250929847402,9.85948822078782,5.202766390361719,1.2112433982911517,9.97629508249089,3.2127535097876754
624,1456704109321745,13.024676038803197,5.365695214431356,6.268517651742252,9.786002537493538,5.313325681317417,1.2095344710135028,10.035440339699427,3.1685811569703377
625,1456704109321745,12.623885050055257,5.308906131971853,6.3787728218792745,9.692464709087892,5.404413892516697,1.2098125942674143,10.086232715083428,3.1306826112589055
626,1456704109336754,12.211877791726058,5.259701909207911,6.480832820904458,9.57903478357147,5.473657162168444,1.2114107715361522,10.124803104216909,3.0993989239964765
627,1456704109336754,11.791860867930923,5.217431859017478,6.5736745614523,9.446277356872933,5.51926869772787,1.2137014543482212,10.147445841401526,3.074845848075439
628,1456704109344750,11.367335100464647,5.181400839980819,6.656446507509945,9.295176620538626,5.540078585293901,1.2161103310271089,10.150776608257587,3.056917564276258
629,1456704109344750,10.94211641545846,5.150908531273975,6.728476032671765,9.127138198951462,5.5355437557319025,1.218127636699491,10.131880786957906,3.045298228998291
630,1456704109360716,10.520325713507274,5.125280654654459,6.7892727713021594,8.943972653353885,5.505738851490648,1.2193170902871215,10.088442794052648,3.039480890361665
631,1456704109360716,10.10634637722291,5.103890647444271,6.838527767817117,8.747858858919024,5.451330126378245,1.2193225286645535,10.018848301308756,3.038793127090202
632,1456704109366602,9.70475059951711,5.086172018888813,6.8761085618885325,8.54128878422346,5.373535167523836,1.2178722799126012,9.922253619226632,3.042428457431374
633,1456704109366602,9.320198638287742,5.0716228142068704,6.902050713531604,8.326997260817288,5.27407102446632,1.214781352394563,9.79861986206122,3.0494821885434837
634,1456704109381622,8.95731786380987,5.059804235964018,6.916546549574354,8.107880993130935,5.155092688653289,1.2099515916029995,9.648712795588123,3.0589900547974747
635,1456704109381622,8.620570184433003,5.050335648333492,6.9199320498521875,7.886911055753509,5.019123375571801,1.2033700055224854,9.47407123072172,3.069967803757737
636,1456704109382622,8.31411668262497,5.042887933024851,6.912672684347065,7.667043073870924,4.868978099536392,1.1951054390293292,9.276947582380142,3.081449808815974
637,1456704109382622,8.04168720019091,5.037176641673473,6.89534856564668,7.451129308007248,4.707682543100928,1.1853036908388672,9.060224973825918,3.0925247817908486
638,1456704109395937,7.806460650417771,5.032955870906837,6.868638740893249,7.241836864098175,4.538389755642608,1.1741810467224758,8.827316476853234,3.1023668341857333
639,1456704109395937,7.6109596895979825,5.0300133300846115,6.833304370607357,7.041576065541654,4.364297320245453,1.1620161112849747,8.582052874107918,3.1102606611266745
640,1456704109403975,7.456961838468522,5.028166610538889,6.7901711352895315,6.852442500975971,4.1885672828443,1.1491398330358218,8.328564917876053,3.115620415925076
641,1456704109403975,7.345428697258136,5.027260362748855,6.740111957137971,6.676175375592622,4.014250710297849,1.135923780435602,8.071164797436095,3.1180025467296857
642,1456704109417944,7.276455245680056,5.027164239876207,6.684031348097626,6.514133661042079,3.84421857365871,1.1227670071191154,7.814230415477169,3.117113181682579
643,1456704109417944,7.249241417294395,5.027772035466823,6.6228523076287,6.367290352022029,3.6811007311193022,1.1100821301701158,7.562095604272359,3.112810563075955
644,1456704109425944,7.262087502585969,5.029002997852828,6.5575061317565995,6.2362440942909885,3.5272348249105208,1.0982814174493356,7.318949184407692,3.105102764012078
645,1456704109425944,7.312413685966381,5.030806451340232,6.488925106134918,6.12124660111933,3.384626645366476,1.0877636920364,7.088745194857515,3.0941407501674316
646,1456704109440945,7.396802902872108,5.0331705063830965,6.4180378368161275,6.022243501114916,3.254922906953546,1.0789027446833277,6.875125632658662,3.0802069234252833
647,1456704109440945,7.511065641974838,5.036134903494747,6.34576680057642,5.938925474477587,3.139396566381853,1.0720377512491863,6.681355906097212,3.063699546206022
648,1456704109441939,7.650325124771195,5.039807100755241,6.273027485009671,5.8707858096663745,3.0389440045985965,1.0674659552926387,6.510272215006816,3.04511372803324
649,1456704109441939,7.809121070060295,5.044379830329577,6.200728145854692,5.817180012258977,2.9540927834863737,1.0654376210973346,6.364239625965845,3.025019854431233
650,1456704109456940,7.98152981476374,5.050147713851507,6.129768735703336,5.777383053246583,2.885018396865314,1.066153024550985,6.245119991352329,3.004040469786398
651,1456704109456940,8.161297943689398,5.057520205201682,6.061037227277263,5.750640401573011,2.831568450109403,1.0697610710729433,6.154249733465102,2.9828267030380875
652,1456704109463946,8.341985902787558,5.06702808185684,5.995401727457739,5.736209880060165,2.79329282625158,1.0763590471006121,6.0924282175284565,2.9620352657823124
653,1456704109463946,8.517117690409755,5.079320870490024,5.933697455036802,5.733392157834506,2.769478431311496,1.0859930387827175,6.05991769381309,2.9423068032724555
654,1456704109478450,8.68033313157326,5.095153021789,5.876708487153743,5.741548417001799,2.7591871044890035,1.0986586617124527,6.05645566330923,2.9242460297775668
655,1456704109478450,8.825540431599087,5.115357553929626,5.8251449192742815,5.760104905571151,2.761295383401536,1.1143018698224223,6.0812799825241575,2.9084037647835235
656,1456704109486451,8.947067896070996,5.140807344767401,5.77961668719344,5.788545670844972,2.774534968594594,1.132819691496434,6.133166030299529,2.89526077155733
657,1456704109486451,9.039814030201319,5.172365917850276,5.740605703683188,5.826395954053741,2.7975327188240233,1.1540607865858634,6.210474054079283,2.8852132366616834
658,1456704109500959,9.0993944469897,5.210830907168945,5.708438112061029,5.873198851008787,2.828848792524312,1.1778257805946457,6.31120379890417,2.8785598789845492
659,1456704109500959,9.122282383213568,5.25687421702474,5.683258488278515,5.928487054941979,2.8670113621638142,1.2038674322466794,6.433052994824579,2.8754909657747976
660,1456704109501964,9.105937563085451,5.3109833469319,5.66500794722115,5.99175054876762,2.910546441470826,1.2318908074338661,6.573476382869903,2.876079700304789
661,1456704109501964,9.048916246864636,5.373408425739571,5.653408310537916,6.062400789189853,2.9580018719794237,1.2615537394698182,6.729742655989712,2.8802763637461095
662,1456704109516206,8.95095424346288,5.444119075687832,5.647954504660297,6.139732579944038,3.007965302158404,1.2924679317295913,6.898987595460289,2.887905326293779
663,1456704109516206,8.813014777569526,5.522774435552856,5.647916963067457,6.2228861610887956,3.059076861696953,1.3242010878923343,7.078262218396621,2.898664792742678
664,1456704109524202,8.637294317312774,5.608708785845521,5.652355002352199,6.310813274566296,3.110037971900526,1.3562804336746157,7.264574746382596,2.9121290516894454
665,1456704109524202,8.427181931117238,5.700934268108322,5.660141084890253,6.402251440421712,3.1596181496185602,1.3881979320650426,7.454925239733778,2.9277531242679142
666,1456704109538161,8.187171601257914,5.798161046706159,5.669994823011425,6.495710276083489,3.2066616838440707,1.4194174068279706,7.646332554169779,2.9448800652237095
667,1456704109538161,7.9227313746924395,5.8988339864707005,5.680524732270056,6.589472764762127,3.250095768000212,1.4493836939377749,7.835854780517027,2.9627515955610497
668,1456704109545958,7.640136865254227,6.001183737260642,5.690275172874902,6.681613319641901,3.2889411889683906,1.4775338496498867,8.020605673700526,2.980522960301571
669,1456704109545958,7.346278753882486,6.1032891516066865,5.697775667999343,6.770033379364135,3.322326107742699,1.5033103510193568,8.19777021738704,2.997282743838564
670,1456704109561157,7.048454745354386,6.203147201789152,5.701589948351479,6.852513947657076,3.349502870192914,1.5261761072928735,8.364622554661532,3.0120778935315897
671,1456704109561157,6.754156166733563,6.298746038348192,5.700362551173639,6.9267829402836645,3.369867182909768,1.5456309300182296,8.518549223474045,3.023943572649757
672,1456704109562236,6.470858196451037,6.3881367256883035,5.6928611975987895,6.990593709889255,3.3829784079813554,1.5612288742159102,8.657079802555778,3.031936875983254
673,1456704109562236,6.205820986386706,6.469499701531116,5.678013259736147,7.041809931383576,3.3885792160939503,1.5725956095361442,8.777925582649791,3.035173031767975
674,1456704109576359,5.965907189041704,6.5412030721850405,5.654934787872051,7.078491071106508,3.3866124169910368,1.5794447998281127,8.879024996344748,3.0328624977163585
675,1456704109576359,5.757419908787728,6.601851073521135,5.62295128830252,7.098971887461778,3.3772325116244217,1.5815924054211428,8.958592751883799,3.024347228298637
676,1456704109584666,5.585963846232992,6.650321932717685,5.5816105653778365,7.101929334831274,3.360809559529201,1.5789678550911754,9.01516837653482,3.0091342450362992
677,1456704109584666,5.456331267106488,6.685794742804336,5.530688811962925,7.086431629853623,3.337923551352385,1.571621181945044,9.047659624847944,2.9869245618033817
678,1456704109597973,5.372413317011473,6.707764937023948,5.47019133874448,7.05196706742573,3.3093485733231147,1.559725547886457,9.055377284523777,2.9576357081085405
679,1456704109597973,5.337136180303882,6.716047905871712,5.400348990369113,6.998453288904142,3.2760272114028344,1.543575068854493,9.038059982253312,2.9214165884308976
680,1456704109606055,5.35242085952819,6.710770651936605,5.321610780995325,6.926229839563132,3.239036443097629,1.5235783076538811,8.995889399223937,2.8786539663231303
681,1456704109606055,5.419165082897495,6.692352264181768,5.234632932591847,6.836037709081684,3.1995467300744402,1.5002480382244345,8.92949669111903,2.8299702660256103
682,1456704109621259,5.537245864671536,6.661475129026592,5.140264481689013,6.728989563543069,3.158776437431005,1.4741879211649724,8.839960007466283,2.7762127749712118
683,1456704109621259,5.705541169626969,6.619049691740481,5.039529887410804,6.606533869722185,3.1179441044075626,1.4460767237772785,8.728791964981236,2.7184348954766184
684,1456704109621973,5.921968771480976,6.56617593481167,4.933609420675931,6.470415183889726,3.07822125663301,1.4166507488471312,8.597915712499738,2.6578706566781825
685,1456704109621973,6.183539951116741,6.504104579385412,4.823818295388662,6.322631798536094,3.040688269308458,1.3866851396412911,8.44962908558169,2.5959038969968136
686,1456704109636348,6.486425546823468,6.434200547283527,4.711585377212679,6.16539108635604,3.006295362657192,1.356974634735883,8.286557926490676,2.5340333017457235
687,1456704109636348,6.826032165106933,6.357910637306265,4.598431984315469,6.001062364105136,2.975830258868824,1.3283141976463504,8.111601138809156,2.4738341040607956
688,1456704109644310,7.197086781231075,6.27673672044804,4.485951030397777,5.8321268007235325,2.9498934086895408,1.3014798471471851,7.927870705959832,2.4169169966274477
689,1456704109644310,7.593728170612131,6.192214897349482,4.37578659492844,5.661123847558484,2.928881073789306,1.2772100198315424,7.738629610839415,2.364884742014835
690,1456704109658975,8.009603647367541,6.1058998170032925,4.26961377215013,5.490594139563764,2.912976084227464,1.256187872405121,7.547229799118706,2.319287101935848
691,1456704109658975,8.437969725291397,6.019351867081678,4.1691183783130965,5.323019865127785,2.9021459255761997,1.2390249860349296,7.357051542254332,2.28157499532981
692,1456704109665982,8.871795779363298,5.9341237936010955,4.07597601196886,5.160764752990693,2.896147868768166,1.226246891554402,7.171445070915088,2.2530551409446176
693,1456704109665982,9.303870630262018,5.851743176561359,3.991830092495448,5.006016435364616,2.8945408289166017,1.2182807010780046,6.993675227440971,2.2348466896308956
694,1456704109681274,9.72691302926028,5.773688266966548,3.9182687024867664,4.8607338257472765,2.8967033183198727,1.2154449949414754,6.826869974077438,2.2278414087362037
695,1456704109681274,10.133687779921184,5.701356514929405,3.856800352232354,4.72660161357623,2.9018563983473054,1.2179420426547944,6.673973595127384,2.232668872437858
696,1456704109682774,10.51712909652233,5.63602707464709,3.8088292494837988,4.6049934218158715,2.9090902996340513,1.225852424124437,6.5377051162994135,2.2496679501878227
697,1456704109682774,10.87047159907911,5.578820218741127,3.775631074318881,4.496944756290014,2.91739356478585,1.2391321161077828,6.420521884309297,2.27886576626088
698,1456704109705305,11.187387485039208,5.530657520574661,3.7583302623214334,4.403136524979366,2.925684023586774,1.2576121002746994,6.324587690381255,2.3199652233416694
699,1456704109705305,11.462126502958789,5.492226634105729,3.7578793913297273,4.323889519807201,2.9328413093229533,1.281000540476432,6.2517445292150216,2.3723420664049617
700,1456704109706323,11.689653794907375,5.463953809107452,3.775040882501771,4.259169831825815,2.9377407114943916,1.3088875605008796,6.203487125571627,2.4350522462012356
701,1456704109706323,11.86577963008757,5.445986487705977,3.8103712605058773,4.2086047446582,2.939287873639805,1.3407526184953376,6.180939719385575,2.506850009779068
702,1456704109718287,11.98727466023904,5.438187674548535,3.86420861608475,4.17150822524151,2.9364533359188805,1.3759744413292094,6.184835251567562,2.5862167209771907
703,1456704109718287,12.051964710421004,5.440143081374492,3.936664250734291,4.146914714872849,2.9283054859464395,1.413843482142098,6.215497935002497,2.6713999260578767
704,1456704109726552,12.058800073821047,5.451181083853309,4.027619403685921,4.13361948771307,2.9140403402766157,1.4535768803659268,6.272830985542567,2.7604616450771338
705,1456704109726552,12.00789541336109,5.470404269055788,4.13672747085092,4.130223337301902,2.893006704432026,1.4943358705919547,6.356311673241084,2.851334316435366
706,1456704109741289,11.900537571416356,5.496730007449812,4.263421416741216,4.135178887514508,2.8647255278683885,1.5352454570956096,6.464995578017337,2.941882310422902
707,1456704109741289,11.739159952907746,5.52893638040947,4.406925287507775,4.146835656951349,2.8289026988551993,1.5754159682928401,6.597531069072289,3.0299665283464132
708,1456704109742289,11.527283734444177,5.565709228850916,4.566267991753286,4.163481258610167,2.785435141714708,1.6139659088678995,6.752183957626172,3.113509390762759
709,1456704109742289,11.269428038260315,5.605686309777132,4.740297072232939,4.183376743773695,2.7344106965373443,1.6500454017455217,6.926871471067701,3.1905575294990838
710,1456704109756290,10.97099331622934,5.647495700542596,4.927690249474891,4.204785057587527,2.6761026231569454,1.6828594566973807,7.119204422113827,3.259339647691143
711,1456704109756290,10.638123938481304,5.689787394805511,5.126963044741166,4.225992795735391,2.6109596488999807,1.7116902699066991,7.326536451686864,3.318317154571728
712,1456704109764291,10.277556635273308,5.7312586704750395,5.33647159803309,4.245326694063226,2.539592448397405,1.7359177078324857,7.54601890308707,3.366225327936057
713,1456704109764291,9.896460863101566,5.770674540587133,5.554410724650328,4.261167196913314,2.4627574339147293,1.755037056343126,7.774658953409728,3.4021030911171684
714,1456704109778631,9.502275897818059,5.8068844631638035,5.778808123707105,4.271961821172866,2.3813387416505294,1.768673087270983,8.009377562143712,3.425310128556656
715,1456704109778631,9.102548155596558,5.838836114137504,6.007516247050317,4.276240890909837,2.2963292734865557,1.776589625269762,8.247063414196733,3.435530921907486
716,1456704109786638,8.70477144408041,5.86558688920116,6.238203679263472,4.272637712799017,2.2088115617435,1.7786941249023958,8.484619651001989,3.432766196015252
