,timestamp,x,y,z,w
0,1456704106043305,5.675195651603164e-05,8.132326836442531e-05,0.0002460875288329683,0.00013620028686579235
1,1456704106066306,7.534705995516992e-05,0.00011652464432764447,0.00023701498378352596,0.00012370290727985026
2,1456704106082315,9.646607096946222e-05,0.00014236267130932537,0.00022309297550214728,0.00011317826858347856
3,1456704106103318,0.00012149709794416472,0.00015272648120163884,0.0002007251158708607,0.00010571933101931073
4,1456704106127529,0.0001498698438454792,0.00014712011126818495,0.00016912003098391347,0.0001012859294469979
5,1456704106142326,0.0001790246302837164,0.00013133974895664243,0.0001311300875690334,9.884686889263347e-05
6,1456704106163322,0.00020511042913495624,0.00011554377953275813,9.307357364380719e-05,9.712577763687449e-05
7,1456704106187338,0.00022408994401959566,0.00011010898053023925,6.331311648771235e-05,9.5589987637173e-05
8,1456704106218355,0.00023284691327498516,0.00012107999748090209,4.995390808017115e-05,9.510761566400099e-05
9,1456704106219350,0.00023005486580764497,0.0001474690407263066,5.847851527933253e-05,9.789353321572122e-05
10,1456704106240353,0.00021661806282229394,0.00018179008884245507,9.014338224749208e-05,0.00010671796457365703
11,1456704106269352,0.00019542740724876097,0.00021352745656733307,0.00014161126236610373,0.00012363230296434923
12,1456704106279367,0.00017041256465838455,0.0002336903827181959,0.00020581735806890687,0.00014868339278088308
13,1456704106309583,0.00014536890537905856,0.00023815943288702838,0.00027365423209033986,0.0001791888685790102
14,1456704106336584,0.00012320483833924584,0.0002284913378859814,0.0003358800661789428,0.00020999293136392724
15,1456704106360586,0.00010588678831717462,0.00021042884228602304,0.0003847676527441184,0.00023473431555895292
16,1456704106361749,9.483466169985473e-05,0.0001913647498763073,0.00041525434121383246,0.00024771566539867314
17,1456704106380593,9.121268886876845e-05,0.0001779626020320256,0.0004255017078200855,0.00024566425241588283
18,1456704106405775,9.560070326959032e-05,0.00017450407762132454,0.000416794460818871,0.0002286683233956989
19,1456704106420773,0.00010694859850748373,0.00018200504162797744,0.00039274286232714466,0.0001998967553020328
20,1456704106439826,0.00012139683272708245,0.0001980263020769964,0.00035792427074240844,0.0001642459155970144
21,1456704106464769,0.000132098645648884,0.00021727057023328037,0.00031638900975212167,0.00012657891935662045
22,1456704106480644,0.0001311083808822748,0.00023314557230505307,0.0002706867209166759,9.047330751373976e-05
23,1456704106500856,0.00011351315936960976,0.00024016216573324677,0.00022197709218181903,5.821253416587087e-05
24,1456704106516857,8.259236232016145e-05,0.00023636691008639641,0.0001712448929696551,3.213912718294612e-05
25,1456704106539859,5.3510975896765255e-05,0.00022456370208090632,0.00012090623279854974,1.6589766994001524e-05
26,1456704106560859,5.2604093459315394e-05,0.0002115562152023377,7.574263231425779e-05,1.8890983095406396e-05
27,1456704106577386,0.0001103786879483219,0.00020596302939252257,4.2485362354194546e-05,4.797277211959319e-05
28,1456704106599894,0.00024912163008939867,0.00021617954255503838,2.81940115056174e-05,0.00011036324724903846
29,1456704106620117,0.00046946947826981007,0.00024960361020339334,3.814451924642318e-05,0.0002050983284711644
30,1456704106636894,0.0007425102979801071,0.00031249908367581394,7.392297082830384e-05,0.0003203287287616678
31,1456704106659896,0.0010131791877755194,0.000408588447077618,0.00013212583208890822,0.0004342711199086507
32,1456704106680626,0.0012164287715413738,0.0005353615241959846,0.0002040013672685388,0.0005213998802065736
33,1456704106703263,0.0013014260073981702,0.000679809881452389,0.0002765610732131504,0.0005620159355097505
34,1456704106719975,0.0012540313033286214,0.0008172693453038118,0.0003355862016336771,0.0005510134924344205
35,1456704106739977,0.0011070518599703752,0.0009160685383140176,0.0003700918685562,0.0005013027426666702
36,1456704106762979,0.0009320346208679153,0.0009473727703230889,0.0003765941147528451,0.00043940117451873634
37,1456704106780501,0.0008141132910115857,0.0008965467201607822,0.00036100986182162787,0.0003943787725200292
38,1456704106800294,0.000819486721530295,0.0007713201342245325,0.00033684913644936435,0.00038496190004857394
39,1456704106825008,0.0009693514612279058,0.0006031641045987921,0.0003201225818618889,0.000411096134060366
40,1456704106840009,0.0012315164871487282,0.00044085065899078534,0.00032300321297162854,0.00045436414875069385
41,1456704106862011,0.0015325925470559818,0.0003379955376298253,0.00034884430624949875,0.00048722263537015774
42,1456704106883839,0.0017845918413969585,0.00033822184308501227,0.0003905362899630944,0.00048662905838462936
43,1456704106899831,0.0019148554802948083,0.00046205853699732486,0.00043292735469029487,0.00044556252828928253
44,1456704106920793,0.001888798815961556,0.0006993227158223173,0.0004586684205195121,0.0003769920946280774
45,1456704106943829,0.0017191302396671023,0.0010096760809727486,0.000455553458661625,0.0003083950729471281
46,1456704106959754,0.001460116255068462,0.0013318231627040549,0.0004224664590348118,0.0002693582968770728
47,1456704106982158,0.0011894236154673346,0.001598810618726841,0.0003710669608284041,0.0002780416805638478
48,1456704107003827,0.0009830523199729196,0.0017548000353451469,0.00032186078451271975,0.00033278730149202386
49,1456704107019824,0.0008912256521550749,0.001768780542876112,0.0002959108127832983,0.0004126631243173654
50,1456704107041675,0.0009237648458503728,0.0016423152908846687,0.00030581617805357334,0.0004864207051133013
51,1456704107064671,0.0010504671665711933,0.0014099346663808763,0.0003502730485854624,0.0005253498940819152
52,1456704107080192,0.0012154568277463168,0.0011315869585106903,0.00041485984893928585,0.0005139218762539577
53,1456704107102209,0.0013582046259944089,0.000877725987873683,0.00047837673760634837,0.000453778140643767
54,1456704107123215,0.0014321947815221039,0.0007102588507443754,0.0005211280337961065,0.0003604489747062702
55,1456704107140212,0.00141537593083378,0.0006655237435348574,0.0005310026636318615,0.00025572891991650776
56,1456704107162213,0.0013112909025182376,0.0007456709080816132,0.0005053172088763406,0.00015993431017513666
57,1456704107183228,0.0011431945735227904,0.0009209221197020666,0.0004492226257085905,8.71755276384759e-05
58,1456704107200234,0.0009448063201125565,0.0011399189075397705,0.00037280196657043016,4.4501514015785156e-05
59,1456704107222235,0.0007510796660685383,0.0013429984646399279,0.0002883577641595449,3.365573833968635e-05
60,1456704107243236,0.0005911936333030633,0.0014749011279644223,0.00020819968524749506,5.319873322408115e-05
61,1456704107260245,0.00048454116721472536,0.001496269543860729,0.0001427981083183505,9.933266109175374e-05
62,1456704107282759,0.000439311523764195,0.0013940144556092316,9.93488682569297e-05,0.0001653815489583054
63,1456704107303675,0.00045271015325519553,0.001188720386319974,8.08932954079785e-05,0.00024125782897200363
64,1456704107320675,0.0005122105618104643,0.0009350868603398043,8.608372811403446e-05,0.0003143797872066554
65,1456704107342473,0.0005981627056316633,0.0007115791151502464,0.00010972607805688713,0.00037238620657922854
66,1456704107363469,0.0006883516083543297,0.0005988513608594829,0.00014421133178832586,0.00040647098575153306
67,1456704107380484,0.0007637877071022083,0.0006519296071188279,0.00018167609745271078,0.0004133926686421274
68,1456704107402407,0.0008132073227543229,0.0008759847554005394,0.0002164686057115819,0.0003949679481109885
69,1456704107423408,0.0008337987664850159,0.0012166960592856423,0.00024743345720954765,0.00035576262882463215
70,1456704107440410,0.0008281550257542481,0.0015719931574935482,0.0002793401929870014,0.00030117576928204664
71,1456704107462354,0.0008001255328404073,0.0018237080729994449,0.00032233167776298487,0.00023766449524051107
72,1456704107483611,0.000752470092623632,0.001879128637575306,0.0003883425457052911,0.00017469378243634314
73,1456704107507194,0.000687049297954621,0.0017074279953104535,0.00048494384789254106,0.0001260529774846247
74,1456704107522195,0.0006062434456321344,0.0013565715355418383,0.0006094263288220668,0.00010819176678955985
75,1456704107543496,0.0005143156559472723,0.0009426101522787423,0.0007469524951027627,0.0001351386171761363
76,1456704107560197,0.0004186845588278794,0.0006132180750722526,0.0008747152168448992,0.0002118913396469925
77,1456704107582467,0.00033131260712982287,0.00049721820564413,0.0009704088589705955,0.00032945155485613996
78,1456704107603169,0.00026918876348435106,0.0006577543366929333,0.0010208227201619193,0.0004644024245477678
79,1456704107619941,0.000252098101439031,0.0010665057070632557,0.0010265294459911936,0.0005843574889471859
80,1456704107641941,0.0002970503060559186,0.0016099530368598404,0.001000659853634776,0.0006581871888143432
81,1456704107662943,0.0004110653961272794,0.0021276342715852146,0.0009622606866165587,0.0006673608399666141
82,1456704107680449,0.0005855443040820006,0.002469235016356507,0.0009270868903638659,0.0006133736952221215
83,1456704107701965,0.0007950561716735724,0.0025473311634417886,0.0009002972658298482,0.0005174581468757234
84,1456704107722972,0.0010013807627063445,0.0023624259216685345,0.0008750995112622498,0.00041243271823731496
85,1456704107739967,0.0011616249004112785,0.001989984327505594,0.0008381311511982529,0.0003303306640867408
86,1456704107761970,0.0012385317781574035,0.0015395918924140746,0.0007780067993484283,0.00029096029148367535
87,1456704107783671,0.0012109475320459262,0.0011104080001646027,0.0006915755822091197,0.0002955809590547752
88,1456704107800396,0.0010814148289510581,0.0007645171998546955,0.0005847136381271005,0.0003277988853793118
89,1456704107824187,0.0008773102355567269,0.0005242861571168933,0.0004687403045530336,0.0003612999973560929
90,1456704107843487,0.0006440074665121324,0.00038499848986891643,0.000356071425617524,0.0003712686412194532
91,1456704107860190,0.00043208264160138186,0.00032964784185209614,0.00025789239151904664,0.0003444568042500845
92,1456704107882507,0.0002827459931498105,0.0003379163304695788,0.00018393562642292816,0.0002835507436124412
93,1456704107903697,0.00021604430049812577,0.00038895506849197584,0.00014253160896390398,0.0002046498946549999
94,1456704107934762,0.0002258701231068961,0.00046169675423316984,0.00013934904162243733,0.00013007437943789464
95,1456704107942471,0.00028415281794139655,0.0005358746518118609,0.0001749952700203198,8.01903497345123e-05
96,1456704107965472,0.00035324358886103864,0.000594289043601787,0.00024321448219271662,6.72997384358287e-05
97,1456704107986499,0.0004015417297554067,0.0006251710932642422,0.0003315012458007539,9.308239964589828e-05
98,1456704108002691,0.0004152912739550803,0.0006235794766026381,0.0004244456063710769,0.00014960898033935935
99,1456704108025691,0.00040110809294010137,0.0005915180412637059,0.0005081089384700299,0.00022286558683296256
100,1456704108046511,0.0003786845305275375,0.0005368448400462384,0.0005727943781378439,0.0002971358186645617
101,1456704108070511,0.00036828264556464335,0.000471073613236279,0.0006127515747410952,0.0003586704174225541
102,1456704108085763,0.00037981508833564775,0.00040625928146178884,0.0006240050949806749,0.00039785001324591223
103,1456704108106841,0.0004085372247551296,0.00035149903129015386,0.0006033940375828844,0.000410010137089972
104,1456704108121842,0.0004383646808973553,0.0003101003701414573,0.0005510373386629711,0.00039556535762951835
105,1456704108145844,0.00045025171388117985,0.0002787247524053482,0.0004751042383036309,0.00035981373703028327
106,1456704108166105,0.00043143608544754546,0.00024928400471002583,0.0003947690770495038,0.0003122071497295765
107,1456704108182563,0.0003816063289172895,0.00021317715923814494,0.0003374205835866039,0.00026457160229240287
108,1456704108212069,0.00031359067387598804,0.00016630048092670702,0.00032977542193401765,0.0002281810538469421
109,1456704108226103,0.00024852185165144796,0.00011270825324917347,0.0003868556730771593,0.00021055485465996674
110,1456704108242069,0.00020775691570128872,6.51555297582651e-05,0.0005046546263476364,0.00021352160030364237
111,1456704108265071,0.00020495946212490293,4.1979400349734774e-05,0.0006604825846280791,0.00023364412551273608
112,1456704108286082,0.0002412089332473717,6.123514708632857e-05,0.000820780513186683,0.00026469719889442674
113,1456704108302120,0.00030446231533358615,0.00013398240047103726,0.000952373612278671,0.00030065211110181215
114,1456704108325119,0.0003732409222290347,0.0002589566691544439,0.0010319832872117633,0.0003374707940175778
115,1456704108349120,0.00042351241666199697,0.0004206296494032442,0.0010506288913699638,0.0003729038303464787
116,1456704108362330,0.0004369669839593037,0.0005917434582260209,0.0010126410113047487,0.0004047668202798665
117,1456704108385501,0.000407955079184615,0.0007398851355751682,0.000931252714967653,0.0004291534807059122
118,1456704108406274,0.0003461245465371824,0.0008361492957707236,0.0008232847502560853,0.0004401837792645068
119,1456704108421999,0.0002733261803691181,0.0008630842317760681,0.0007048452200770255,0.0004319183279668718
120,1456704108447002,0.00021603240292539794,0.0008191937818760624,0.0005889907301561394,0.0004014439089388969
121,1456704108466009,0.00019639142817764774,0.0007183251882623863,0.00048526611576354414,0.0003510629867900061
122,1456704108489771,0.0002251028695928614,0.0005842393981564678,0.0004002208923746669,0.00028801912618931804
123,1456704108505778,0.00029820799391657495,0.0004428029058001788,0.0003378522878307384,0.00022191598619594874
124,1456704108526116,0.000398547720374012,0.00031517459898453085,0.0002995759795775098,0.000161449735706971
125,1456704108542780,0.0005012133390938149,0.00021433123520439454,0.00028412158243144647,0.00011217744269378347
126,1456704108564784,0.0005808955046384233,0.00014516415513318262,0.0002878318076266814,7.606922041629442e-05
127,1456704108586575,0.00061845764820154,0.00010684185144185219,0.00030529236797291053,5.257395052768821e-05
128,1456704108601870,0.0006050212990567714,9.588332420595107e-05,0.0003300137509839541,4.0475700202780205e-05
129,1456704108624871,0.0005434909616743363,0.00010886384664685152,0.0003553814496655838,3.9780583135408845e-05
130,1456704108645874,0.0004480755594600326,0.00014413127648704377,0.000376354077940279,5.290271270711361e-05
131,1456704108661874,0.00034172882074298737,0.00020215645709506077,0.0003916233091887533,8.449372823026458e-05
132,1456704108685724,0.0002509853099258915,0.00028436017020481405,0.0004048108863108862,0.00013960206921030948
133,1456704108706179,0.0001985245202836792,0.0003907059426094042,0.0004231365611632425,0.00022051678351665282
134,1456704108721912,0.00019546336771720065,0.000517035517656934,0.00045333814766661636,0.00032340394304204625
135,1456704108745914,0.0002365119807874171,0.0006535192853411259,0.0004965703972452775,0.0004362872787084229
136,1456704108766915,0.00030072588503522697,0.0007851105340837165,0.0005451247698916934,0.0005397481162162395
137,1456704108782654,0.0003585290456741726,0.0008938295682379543,0.0005832971120452585,0.0006108932443751049
138,1456704108805381,0.00038278653618917745,0.0009620601972715484,0.0005928572391620795,0.0006299217651840675
139,1456704108826371,0.000359458655155118,0.0009762762718400816,0.0005612664667869143,0.0005874055996849147
140,1456704108842154,0.0002932062711674373,0.0009311306543835425,0.0004890829091676736,0.0004896456148493263
141,1456704108865160,0.00020563559279041394,0.0008337724937064914,0.00039279882035153744,0.0003596585860075769
142,1456704108894547,0.00012741199939714606,0.0007074190959086142,0.00030106986161815535,0.00023264152423188022
143,1456704108902243,8.801531814025668e-05,0.0005921529737147946,0.0002452778661933485,0.00014665805945061143
144,1456704108925245,0.00010712340546601493,0.0005404560265443696,0.00024805390624844427,0.0001310097669289418
145,1456704108947247,0.0001900916146341085,0.0006057537396729806,0.0003143327626212189,0.00019581554242676727
146,1456704108962246,0.0003281412272470248,0.0008244904180141101,0.0004284022788536908,0.00032654674620151165
147,1456704108985484,0.0005022976545474561,0.0011959477532918436,0.0005580823554555001,0.00048637775955713287
148,1456704109007688,0.0006888130947690531,0.0016683137661007814,0.0006646970441596064,0.0006268853708751093
149,1456704109022694,0.0008633725981326229,0.002141569711111166,0.0007155506041224078,0.0007041742858494794
150,1456704109046473,0.001002908095715865,0.002493390918586228,0.000694597788664885,0.000694427484602153
151,1456704109067687,0.0010867174191600787,0.0026224284849697454,0.0006073520358936153,0.0006022589394936662
152,1456704109084199,0.0010996277331599034,0.0024903046440033377,0.00047804859999559283,0.00045806171581461733
153,1456704109105492,0.0010371627215434694,0.0021398492146006355,0.0003402343716136084,0.0003056012192524986
154,1456704109127493,0.0009091319789808213,0.0016779625214509647,0.00022486549382199614,0.00018560727453989636
155,1456704109144494,0.0007383728941644667,0.001231198089670837,0.000150866402698831,0.00012247585167738038
156,1456704109165496,0.0005549691453798658,0.000897175587712581,0.00012138265384047065,0.0001188569180269814
157,1456704109187680,0.0003886403322378254,0.00071502909577038,0.00012600978498679115,0.00015873678157416737
158,1456704109208732,0.00026168204162367825,0.0006647747275785558,0.00014697327218353467,0.00021618302857096927
159,1456704109225734,0.0001841309263476745,0.0006894487820781443,0.00016634971864098143,0.0002655161715119491
160,1456704109246737,0.00015273751668168546,0.0007250614718594322,0.0001717317338778465,0.0002891608796912654
161,1456704109267744,0.00015450555946119762,0.000724395662206923,0.00015882020152359425,0.00028113491967096807
162,1456704109285263,0.00017347939862436267,0.0006676834421651696,0.0001308273617724122,0.00024619323862479204
163,1456704109306755,0.00019750893829715953,0.0005607087733553665,9.572964109317893e-05,0.00019608093976511946
164,1456704109328754,0.0002215584106411096,0.0004253149985749858,6.285382841692129e-05,0.00014471195001314923
165,1456704109345600,0.0002462072229925752,0.00028805468129537004,3.996976100129697e-05,0.00010377433530458775
166,1456704109366602,0.00027305141666431266,0.0001711383390338459,3.142228461270233e-05,7.981795842622516e-05
167,1456704109388424,0.00030053157032375544,8.752897624141795e-05,3.7379753306645655e-05,7.340471920034987e-05
168,1456704109404958,0.00032301903565239615,4.0082620204521956e-05,5.4151452058534016e-05,8.028034507910113e-05
169,1456704109426939,0.0003335203970007751,2.3549621540270716e-05,7.547794774260711e-05,9.384807815188122e-05
170,1456704109455941,0.00032791679637975943,2.7995111901826488e-05,9.447697803170575e-05,0.00010780421740055425
171,1456704109464976,0.00030775147229886163,4.240207788080603e-05,0.00010563943337217724,0.00011791464834851204
172,1456704109487451,0.0002797164552179199,5.7556830483257965e-05,0.00010623445070612375,0.00012251306918777764
173,1456704109507961,0.00025227485691938216,6.770465941562944e-05,9.677230653445159e-05,0.00012194943920508668
174,1456704109525204,0.00023154566030047095,7.09046828465629e-05,8.051974414085131e-05,0.00011752114686080909
175,1456704109547174,0.0002187022368016094,6.837153536871087e-05,6.225679179495542e-05,0.0001104271497100947
176,1456704109567965,0.00021010853374473748,6.322698563748438e-05,4.659335442758759e-05,0.0001012093483263811
177,1456704109585666,0.00019998729905106795,5.906766329750345e-05,3.635102492056519e-05,8.99279802569199e-05
178,1456704109606973,0.00018408706822986752,5.873474373153836e-05,3.164810436658349e-05,7.687056138839832e-05
179,1456704109628975,0.00016223751926187322,6.36270967996142e-05,3.0174715534559327e-05,6.320810380294696e-05
180,1456704109644976,0.0001383902300334534,7.369389081357787e-05,2.866497387848906e-05,5.1076816937285604e-05
181,1456704109666976,0.00011835910601270031,8.789117730521541e-05,2.498497633274336e-05,4.3040771544987094e-05
182,1456704109688278,0.00010684504040417885,0.00010465469496630068,1.9879172493240666e-05,4.1351449643424806e-05
183,1456704109707287,0.00010552339751922294,0.00012207114580189168,1.7477440033054698e-05,4.7484908530053254e-05
184,1456704109733555,0.00011301022617685099,0.00013782412533096914,2.4158268896834115e-05,6.209456957468156e-05
185,1456704109748295,0.00012622498163684855,0.00014928587698437353,4.605283384775354e-05,8.50909820074596e-05
186,1456704109765291,0.00014196101764282312,0.00015404850551485646,8.605836579659279e-05,0.0001154267158622531
187,1456704109787661,0.00015775993079409077,0.00015078073924576304,0.00014152248993585094,0.00015048126701465488
188,1456704109810234,0.00017208730153335725,0.00013989951458556662,0.00020369291035126583,0.00018551019949261706
189,1456704109825235,0.00018444584564985398,0.00012355347868278854,0.00025955959674079423,0.00021395835044227474
190,1456704109847237,0.00019583677439173944,0.00010489936666683885,0.0002958806509009506,0.0002291369312480241
191,1456704109876534,0.00020919035870079118,8.724285024246896e-05,0.0003041975849528067,0.0002269396704060251
192,1456704109885035,0.00022889856599913501,7.382923171708255e-05,0.0002849342003944988,0.00020849065364759694
193,1456704109906551,0.0002589288747751427,6.866492612088181e-05,0.0002486985175005452,0.00018138238267362725
194,1456704109929552,0.00029995682087998474,7.782936352471828e-05,0.0002138445281937104,0.0001585515456480175
195,1456704109945554,0.0003468979430225751,0.00010979162188631918,0.00020081381679431707,0.0001546210809174689
196,1456704109966553,0.00038860445936911357,0.00017312670095036024,0.00022500545041215141,0.00018050863285472163
197,1456704109990061,0.00041092852177021906,0.0002713960550951127,0.0002904297075201899,0.00023811142568004365
198,1456704110005576,0.0004026812754407247,0.0003973648143347077,0.0003863463920523161,0.0003175106151786775
199,1456704110026577,0.00036189153665289734,0.0005304265280741339,0.0004887326585304448,0.00039870739402872305
200,1456704110049578,0.0002987720104362658,0.0006403765544515982,0.0005673493569048669,0.0004581024350245785
201,1456704110065580,0.00023310239961555102,0.000697495751466033,0.0005967886044811302,0.00047747588901323975
202,1456704110087640,0.00018672285208334836,0.0006851363699056588,0.0005670428550751096,0.00045158726062892175
203,1456704110109794,0.00017456027796526458,0.0006090423104968979,0.0004882350650912789,0.0003908509634171123
204,1456704110125796,0.00019844054303459917,0.0004988220985543237,0.00038666922818369494,0.0003177816149049273
205,1456704110146799,0.00024650922432784255,0.0004006019658043724,0.0002939154172420309,0.0002587384271454904
206,1456704110169058,0.0002983129957622063,0.0003635168189619073,0.00023421440881864677,0.00023436505868392954
207,1456704110191230,0.0003331348708902388,0.0004243039545270356,0.00021602390662523398,0.0002523278074753696
208,1456704110206525,0.00033826516051240683,0.0005940322615645269,0.00023107164147017427,0.000304858463957221
209,1456704110228739,0.00031430046905806804,0.0008506146086707618,0.0002604457370503097,0.00037184461843246336
210,1456704110251742,0.00027537337772775547,0.001140713531612784,0.0002841337381446025,0.00042824922800459417
211,1456704110266528,0.00024355639104734497,0.0013932420335848357,0.0002894179263433603,0.00045308264284850966
212,1456704110289619,0.0002391793872251624,0.0015422914445543995,0.0002746933898343793,0.0004366553361447218
213,1456704110311403,0.00027137321366556684,0.0015513410971678093,0.00024769434914908325,0.0003835291369823166
214,1456704110326404,0.00033352142805887235,0.0014272448165110487,0.00021972323477666855,0.0003101000496919273
215,1456704110349121,0.0004058382047638234,0.0012158356946793867,0.00019922238776215708,0.00023775076728685133
216,1456704110371406,0.00046369537026817986,0.0009807888624555415,0.0001880059099573423,0.0001844443976550995
217,1456704110386147,0.0004876311894893571,0.0007772366367494353,0.00018165851389973357,0.00015842225681617458
218,1456704110409164,0.0004703282195108984,0.0006337798253548842,0.0001731708615594355,0.00015659029731176501
219,1456704110433160,0.0004176470252257186,0.0005496775236870536,0.00015730659869528328,0.0001677566228399578
220,1456704110447162,0.00034422068060167436,0.0005044228859167762,0.00013327297072542228,0.00017854524711772806
221,1456704110469445,0.00026684468949718604,0.00047168944547925805,0.00010469464419731094,0.00017888158055744604
222,1456704110491735,0.00019910078544427626,0.0004305995773053736,7.754225804298506e-05,0.00016482795858677895
223,1456704110506252,0.00014884781641125402,0.00037137409445116846,5.745725445501113e-05,0.000138405687252391
224,1456704110529084,0.00011826983046758399,0.00029581038047594874,4.767180415584746e-05,0.00010546877674717812
225,1456704110550972,0.00010526826693548174,0.00021423733468833633,4.807530379010028e-05,7.300807485109391e-05
226,1456704110565966,0.00010512147693377832,0.0001405688945111458,5.549008540665658e-05,4.6861206462797946e-05
227,1456704110589477,0.00011193238527476313,8.705584755090023e-05,6.49519022287143e-05,3.0324270013592228e-05
228,1456704110611495,0.00011983859268212522,6.036202390138082e-05,7.157490256082613e-05,2.380902451354771e-05
229,1456704110626495,0.00012402818478683437,6.0096514371102706e-05,7.236895433095861e-05,2.5406343813484752e-05
230,1456704110649497,0.00012148711054194094,7.988076705737117e-05,6.732527566768627e-05,3.2013949028436186e-05
231,1456704110671637,0.00011136901897978728,0.0001100330810475681,5.9361645209608915e-05,4.059904396260294e-05
232,1456704110686446,9.494894013342583e-05,0.00014058509728180247,5.322843433459218e-05,4.9169157897583514e-05
233,1456704110710686,7.518002590165762e-05,0.0001636266136888911,5.3883351907506294e-05,5.712618217983992e-05
234,1456704110731446,5.5902533155604166e-05,0.0001745246668235196,6.492711491590399e-05,6.492334176673116e-05
235,1456704110746448,4.084170790716943e-05,0.00017205569537525115,8.75485378035932e-05,7.326316930204517e-05
236,1456704110769627,3.266994753046049e-05,0.00015780881489827354,0.00012021003110550846,8.227314034847812e-05
237,1456704110791598,3.246270906646622e-05,0.00013530319213591357,0.00015903530642495163,9.105091874674164e-05
238,1456704110806634,3.9747577672477654e-05,0.00010911693852406768,0.00019860598608456733,9.775390825047061e-05
239,1456704110828848,5.307051533715394e-05,8.411856714945019e-05,0.00023281577599356762,0.00010017796382308266
240,1456704110851667,7.073101668726543e-05,6.481255544897166e-05,0.0002556264574507526,9.661867426157066e-05
241,1456704110865639,9.125507793276368e-05,5.4859709554497404e-05,0.00026183549910264493,8.673770168620222e-05
242,1456704110889699,0.00011336583118516317,5.6889682981231666e-05,0.00024806959767253615,7.214896847487736e-05
243,1456704110910747,0.00013554611861502932,7.26964019606727e-05,0.0002140714502787364,5.650024671385558e-05
244,1456704110925748,0.00015553049382470237,0.00010375501236524927,0.00016401906490649736,4.496986188268807e-05
245,1456704110948742,0.00017010234313870096,0.00015174800373939106,0.00010728529413445753,4.329737201634741e-05
246,1456704110970956,0.0001754564088247017,0.0002186035224011856,5.792499039278842e-05,5.6612048111829814e-05
247,1456704110988523,0.0001681900448797175,0.0003056404800979782,3.2427021428761224e-05,8.830425046926982e-05
248,1456704111009214,0.00014673689861708988,0.00041182052612416347,4.588066296108354e-05,0.0001390478678028891
249,1456704111030987,0.00011281748633459219,0.0005316531863824227,0.0001074452503159797,0.0002060212687411414
250,1456704111047987,7.235163925603457e-05,0.0006537683125364492,0.0002165108251304524,0.0002825138944395159
251,1456704111069297,3.5301787791064106e-05,0.0007613846571325438,0.00036094634828370007,0.0003583406411653647
252,1456704111091583,1.4085709202947969e-05,0.0008356593294066523,0.0005183871095517467,0.0004215569171212906
253,1456704111107602,2.0533432699627696e-05,0.0008619703041727948,0.0006608007011798778,0.0004616435833616121
254,1456704111128887,6.190291824120996e-05,0.000837575190481966,0.0007616747724244286,0.000473564640642989
255,1456704111151689,0.00013712656274184428,0.0007773721968595663,0.0008040943264885142,0.00046114182032401204
256,1456704111167663,0.00023490206097036468,0.0007137889961406984,0.0007869638341861423,0.00043764068499647484
257,1456704111189896,0.00033502466958841554,0.0006883281440153531,0.0007263500741118982,0.00042206549532987955
258,1456704111211491,0.00041333055686882704,0.000736255030403601,0.0006501745149449068,0.0004316796435395362
259,1456704111228191,0.0004491446968966326,0.000870599205715474,0.0005874200696579326,0.00047382603423123395
260,1456704111249193,0.00043283756036085986,0.001073647412128755,0.0005563512719115545,0.000541353425425307
261,1456704111271406,0.00037051936895953104,0.0013010100272897107,0.0005575227120048683,0.0006144495436783635
262,1456704111288587,0.00028339739826870156,0.0014966265535899638,0.0005750050682089408,0.00066812468333525
263,1456704111309344,0.00020111336627060016,0.00161152179926059,0.0005847098225377858,0.0006815631447565123
264,1456704111331415,0.0001510818476392737,0.001618577068299262,0.0005652962663435673,0.0006451871098491208
265,1456704111347134,0.0001480745494053739,0.0015195355915616454,0.0005068143208679097,0.0005632503666622071
266,1456704111369136,0.00018853430812883765,0.001344897400236855,0.00041417751906808154,0.0004520676602589756
267,1456704111391375,0.0002521770192455929,0.0011487122855699256,0.00030502409076533864,0.0003351353673624959
268,1456704111414368,0.00031045454227644504,0.0009985923404208633,0.0002034229506538343,0.00023660252832410707
269,1456704111429368,0.0003386339649046492,0.0009597131824451474,0.00013186436357636144,0.00017467665653198722
270,1456704111451369,0.00032655917946718957,0.0010733439293971478,0.00010408707272254719,0.00015679784381139722
271,1456704111474608,0.0002834602689906308,0.0013357250632328335,0.00012076937137278857,0.0001782121992323032
272,1456704111489339,0.00023464066631123174,0.0016880499993853096,0.00016923676527584708,0.00022451078963050937
273,1456704111511551,0.00021137569329823087,0.0020273861000031585,0.00022737618119004485,0.00027715252573566536
274,1456704111534594,0.0002381389457709445,0.0022394677292051518,0.0002709573259698764,0.0003197599127316291
275,1456704111549364,0.00032218794829249996,0.0022416377536392754,0.0002823819272430837,0.0003426763331281785
276,1456704111571355,0.00044951728318797613,0.002016002596464031,0.0002577219961913105,0.0003441424410249378
277,1456704111594546,0.0005888622731590577,0.0016157838869428598,0.0002087919718122809,0.00032821325100010584
278,1456704111609618,0.0007025375999850735,0.0011417663637579845,0.0001587996739842712,0.0003011912937004656
279,1456704111631514,0.0007600395897292075,0.0007019744204798922,0.0001331458950908704,0.0002686973917078663
280,1456704111654329,0.0007486847544135356,0.0003749826724446843,0.00014927351100333872,0.00023442110352269138
281,1456704111669294,0.0006767305534030978,0.00019170727358344878,0.00020975831433116612,0.00020029026392426102
282,1456704111691799,0.0005682986302510086,0.00013832881876198349,0.0003012174825708763,0.00016730068218015858
283,1456704111713605,0.0004532269101052412,0.00017316495742782787,0.0003990894146834608,0.00013638082644225176
284,1456704111728892,0.00035643887949240446,0.0002472019192975163,0.0004760424240712323,0.00010889210814655271
285,1456704111751644,0.00029082446910025844,0.00032039327394286235,0.000510667964179693,8.660295531164554e-05
286,1456704111773615,0.00025583476349362187,0.0003701440046296459,0.0004935668346478401,7.127027521743001e-05
287,1456704111789133,0.00024135015751998047,0.00039186769130857257,0.0004293506745593357,6.417366709725402e-05
288,1456704111811642,0.00023407074777980676,0.0003935385436667301,0.0003345185408980312,6.591225604821619e-05
289,1456704111833930,0.00022322509803877994,0.0003873628271821674,0.00023223063076048311,7.646729328777926e-05
290,1456704111848645,0.0002036741993380434,0.00038221237562169086,0.00014571512511346737,9.520297165399189e-05
291,1456704111870653,0.00017608153983983955,0.00037975033596548486,9.230512314278761e-05,0.00012052850927013638
292,1456704111894734,0.00014491194732380117,0.0003751567275492107,7.976232735202118e-05,0.00014941757080917404
293,1456704111910735,0.00011561758143826163,0.0003610634203257649,0.00010571641207089463,0.00017736210746426682
294,1456704111930738,9.236762026498626e-05,0.000332099757819123,0.00015999590345188922,0.00019915269862871973
295,1456704111954738,7.6997565999592e-05,0.00028784729217929013,0.00022863752075931234,0.00021027306367957984
296,1456704111970739,6.903448623148265e-05,0.00023337351483343155,0.00029784810906907075,0.0002082311000963894
297,1456704111991262,6.63605886537911e-05,0.0001777838885186205,0.000356507725309133,0.00019318449820245759
298,1456704112014779,6.622729495793323e-05,0.00013176820397807032,0.0003968088318617418,0.00016766592395216887
299,1456704112030779,6.635631853865391e-05,0.00010502107519427715,0.0004136990919410734,0.00013572268817033532
300,1456704112050788,6.566119175843146e-05,0.00010413017340476733,0.00040430594780082945,0.0001020267745045921
301,1456704112074782,6.41818669342138e-05,0.00013132075164620018,0.0003682499472936201,7.134126353781961e-05
302,1456704112090094,6.237947145234904e-05,0.00018427389274068524,0.00030893868709468126,4.83034373430249e-05
303,1456704112111627,6.049046960770665e-05,0.00025696699564785487,0.00023507247932879038,3.717946730828837e-05
304,1456704112134660,5.8577637564054867e-05,0.0003411596837212888,0.00016114667422519402,4.131845722579812e-05
305,1456704112150587,5.7278227994872435e-05,0.00042796851307582,0.0001059145737144411,6.236659014695571e-05
306,1456704112170593,5.862188768813739e-05,0.0005090729060502005,8.852712962548405e-05,9.956373324836091e-05
307,1456704112193918,6.616657815988819e-05,0.0005773828636546841,0.00012312462096635392,0.00014944594628709128
308,1456704112210925,8.411944879490758e-05,0.0006272749627275604,0.00021356488905174291,0.0002061014241815154
309,1456704112231949,0.00011573509645640207,0.0006546766656660729,0.00035026267018441583,0.0002619727125380503
310,1456704112253969,0.00016169978106077263,0.0006573943898447661,0.0005106306758798565,0.00030916251623309737
311,1456704112270962,0.0002191930479197135,0.000636113112486524,0.0006636108193268416,0.00034120499401825064
312,1456704112292438,0.0002819511531282237,0.0005962063631893072,0.0007776187054123314,0.0003551276883667303
313,1456704112313953,0.0003412545036643138,0.0005496631304438823,0.0008300549100669137,0.00035324283155571733
314,1456704112331125,0.0003875845899044104,0.0005153992909635196,0.0008154528319360689,0.0003436460808117889
315,1456704112351147,0.0004126846063891522,0.0005160206237009998,0.0007487657388227592,0.0003383646523618728
316,1456704112376227,0.00041169651373972944,0.0005706487982978825,0.0006611403147502896,0.00034896629782600776
317,1456704112391164,0.0003849438204843538,0.0006862425364268719,0.000588411166954104,0.0003810789156932969
318,1456704112411619,0.00033890817939411866,0.0008518943247226539,0.0005565631479336532,0.0004306080992018657
319,1456704112434650,0.0002859273261265021,0.0010397831454344428,0.0005709016404797003,0.0004841107098154236
320,1456704112450647,0.0002421510409551786,0.0012129059778305592,0.000614348504372407,0.0005235784852843354
321,1456704112471546,0.00022374649517954828,0.001336024125108621,0.0006556573184041877,0.0005333818810464802
322,1456704112494483,0.00024227779559552712,0.0013852306868603675,0.0006634401425322892,0.0005061849363031289
323,1456704112510649,0.00030079543364768094,0.0013534427981073782,0.0006194880799884224,0.0004455169106004706
324,1456704112531615,0.00039191666932688533,0.0012518075133154155,0.0005257033824085644,0.0003642815080572556
325,1456704112554609,0.0004985623791390215,0.0011083857320913274,0.00040223489082625435,0.0002799754407664805
326,1456704112569498,0.0005976336662238377,0.0009650654499649028,0.000278527203977957,0.00020859365329332495
327,1456704112591584,0.0006664495010009551,0.0008720906545153104,0.00018196207020993105,0.00015980583758009491
328,1456704112613612,0.0006905621414455547,0.0008781379763543738,0.0001290990085255234,0.00013544946943027086
329,1456704112629613,0.0006698870222651275,0.001014666120076084,0.000122333043812581,0.0001316552110547959
330,1456704112651628,0.0006195058414153548,0.0012778107242484783,0.00015180294205039506,0.00014289104542196572
331,1456704112673615,0.0005635831131521744,0.0016170659551688442,0.0002005154289425782,0.00016523693216746873
332,1456704112690363,0.0005249441085639904,0.0019413473711932473,0.00025041993307197324,0.00019701069026430078
333,1456704112711149,0.0005158352442871786,0.002145777543620182,0.00028764262860391204,0.00023681150187692735
334,1456704112734165,0.000534476797346101,0.0021500730485530554,0.00030544559072023255,0.000280709483809464
335,1456704112749868,0.0005680586794245784,0.0019306706626797635,0.0003040712624945754,0.00032079612742770964
336,1456704112770867,0.0005993914727857584,0.0015306421731188864,0.00028801637904146156,0.0003465855339947999
337,1456704112794594,0.0006137740065573772,0.0010430744311220326,0.00026270548733159366,0.0003491126672686999
338,1456704112809600,0.0006037712178993096,0.0005770256346343016,0.00023252843625227475,0.000325649199998435
339,1456704112832600,0.0005706646150654095,0.00022206473055022845,0.00020066822151287823,0.00028204525658795485
340,1456704112854601,0.0005223314243063602,2.511541567964179e-05,0.00016969371811007125,0.00023090356646683828
341,1456704112869603,0.0004688126350923827,-1.460658401690753e-05,0.00014181132242336133,0.00018645748412882474
342,1456704112893560,0.00041795033723539374,6.51246947330136e-05,0.00011856751824964432,0.00015900947688190841
343,1456704112913953,0.00037310914148249076,0.00020892831466794805,0.00010050523857622297,0.00015168515295775278
344,1456704112937097,0.00033356177607565953,0.00036374986601276374,8.722022701823174e-05,0.00016060561815363605
345,1456704112952837,0.0002966699248602238,0.0004929047880635077,7.775888846181208e-05,0.00017774265160390318
346,1456704112974141,0.0002602124538066954,0.0005809617256288743,7.101912532370151e-05,0.0001946333410073938
347,1456704112995883,0.0002235278486112573,0.0006299844652416982,6.600495360841854e-05,0.00020514610221983345
348,1456704113012884,0.00018735062911316974,0.0006508304830707642,6.20432056735058e-05,0.00020643239074786843
349,1456704113034221,0.00015325145343035893,0.0006543493518583407,5.9005214827563014e-05,0.0001983700388144978
350,1456704113057222,0.00012350061541153924,0.0006460284854287247,5.7352376061191663e-05,0.0001824381192245388
351,1456704113072887,0.00010125683388896186,0.0006250838470489421,5.782214113241129e-05,0.00016082796233587751
352,1456704113094388,9.035906182840198e-05,0.0005869272603993437,6.084100336094802e-05,0.00013605932668103415
353,1456704113116596,9.428338007860932e-05,0.0005271497638189709,6.60097516542143e-05,0.0001109271096267651
354,1456704113132596,0.00011457224636607193,0.0004452703230088272,7.199061910999273e-05,8.845900350189608e-05
355,1456704113153603,0.00014950425170053537,0.0003469651405336502,7.686440298982901e-05,7.165823085284723e-05
356,1456704113177668,0.000193715462050043,0.00024413479078746802,7.876714206960504e-05,6.301219040001243e-05
357,1456704113193109,0.0002390728719080965,0.00015286168940880696,7.652606180637812e-05,6.394889594261981e-05
358,1456704113214118,0.0002765358052894538,8.98765431875964e-05,7.006812423156166e-05,7.450247967601997e-05
359,1456704113237422,0.00029829698473467854,6.854313570932848e-05,6.050769643072346e-05,9.335732078942205e-05
360,1456704113253120,0.00029949652861882765,9.555979754764252e-05,4.999285825154334e-05,0.0001182564109548108
361,1456704113274128,0.00027922420029937426,0.00016938018736742798,4.1507168428030394e-05,0.00014660672326691695
362,1456704113296361,0.00024087011059736093,0.00028069758242050787,3.875270128457069e-05,0.0001760357118768399
363,1456704113313363,0.0001917922617190906,0.00041454492206401545,4.5984273823148636e-05,0.0002046537336705033
364,1456704113336545,0.00014206664833993037,0.0005531372789155016,6.745841175304533e-05,0.00023091394030685678
365,1456704113357364,0.00010232292264397338,0.0006787022147889585,0.00010626895537615916,0.00025323851082550037
366,1456704113373365,8.125040881620117e-05,0.0007759601389288901,0.0001627725894016201,0.00026981715947724987
367,1456704113394373,8.362600565507988e-05,0.0008342601247034773,0.00023331775208032546,0.00027895343342685845
368,1456704113416379,0.0001093884994634575,0.0008494381519302956,0.00031026477350868883,0.0002800221729314714
369,1456704113432380,0.00015379734465428263,0.0008252906146373252,0.0003840316396392983,0.00027472303321667284
370,1456704113453386,0.0002084925333560943,0.0007743105716131766,0.00044699689511926323,0.0002680793209640876
371,1456704113477525,0.00026322764348696217,0.0007170507878029156,0.0004978113507394995,0.0002685542752893617
372,1456704113493492,0.00030798066628740146,0.0006791538127400352,0.0005436695502378624,0.0002866701249328802
373,1456704113514589,0.0003351006531568301,0.0006851650945046664,0.0005981592224225987,0.00033176472061899136
374,1456704113537616,0.00034117030084557975,0.0007495618633806501,0.0006740470177998836,0.00040735604375579976
375,1456704113552590,0.00032824971935739914,0.0008681219416586413,0.0007735965943118448,0.000506960139999122
376,1456704113573879,0.0003040741161114488,0.0010150704796766644,0.0008819853933325408,0.0006131090016139974
377,1456704113597411,0.0002807718079227454,0.0011503869857057722,0.0009692029334475499,0.0007013603719819218
378,1456704113612412,0.0002719747019208845,0.0012360572118127848,0.0010012907131511457,0.0007482606289783959
379,1456704113634577,0.000288823607208686,0.0012531958184491343,0.0009557294728709762,0.0007395634671291078
380,1456704113657613,0.0003360018968090637,0.0012097484816907906,0.0008328333986269914,0.0006747764630980511
381,1456704113673535,0.0004091530621196533,0.0011338155189359585,0.0006571491162626695,0.0005663710008279707
382,1456704113694212,0.0004947061526455528,0.0010570216738456787,0.00046820859185470003,0.00043476981004989825
383,1456704113717609,0.0005724726855436925,0.000998729707674536,0.0003052699116973027,0.0003017388878466424
384,1456704113731493,0.0006207455288877063,0.0009607561905967752,0.00019333919652327592,0.0001848182410788741
385,1456704113753500,0.0006229567278946839,0.0009348243314359338,0.0001366758246370094,9.454910059958157e-05
386,1456704113777608,0.0005738551237223806,0.0009164971938066973,0.00012187943965370713,3.492960080716715e-05
387,1456704113793663,0.00048229567769244344,0.0009151870583225645,0.0001279085397425858,6.085153637465211e-06
388,1456704113815793,0.0003687650621655059,0.0009525587086855454,0.00013753731044721966,7.242842755932132e-06
389,1456704113836801,0.00025870222197158643,0.0010494927750497008,0.00014497444375865683,3.831954596809074e-05
390,1456704113852795,0.00017489298409776344,0.0012096356335233869,0.00015696027178509404,9.951363384236432e-05
391,1456704113875796,0.00013181075188012815,0.0014101539843537475,0.00018786914889373159,0.0001893901873373218
392,1456704113897040,0.0001329349407340232,0.0016059682534611828,0.00025157776753740956,0.0003025031678547813
393,1456704113912810,0.000170929320219958,0.0017455825825226153,0.0003535281558865688,0.0004276612333155893
394,1456704113935811,0.00023038384566453739,0.001790035461418596,0.00048587627644150667,0.0005478404466197106
395,1456704113956855,0.00029258475782064,0.0017254954722075535,0.0006274633794418758,0.0006425358416966248
396,1456704113972813,0.000341063545334129,0.0015649105250251385,0.0007488616232581988,0.0006926953403856291
397,1456704113995822,0.000366041769091483,0.0013409317331958878,0.0008211005010733756,0.0006870890146401191
398,1456704114017124,0.0003660460074623686,0.0010958262615954513,0.0008253319795309609,0.0006275971478774845
399,1456704114040829,0.00034618589019753195,0.0008726126863809736,0.0007601535740323804,0.0005306107112402023
400,1456704114055867,0.00031431500467045946,0.000708175718555342,0.0006437250941185407,0.0004231479840498574
401,1456704114076868,0.000277289337409002,0.000627328121274792,0.0005091732579505975,0.00033470043053861415
402,1456704114093346,0.00023907675467677502,0.0006376580064870165,0.0003941223037205829,0.00028783189661018904
403,1456704114116515,0.00020111242917999025,0.0007269009346772887,0.0003279730734233559,0.0002911777600677172
404,1456704114137509,0.00016403936433215705,0.0008651356195189505,0.00032218610346644436,0.0003374863260918713
405,1456704114159504,0.0001293955149271152,0.001012259860570162,0.00036777580474367543,0.0004071554003941641
406,1456704114176507,0.00010011480611166205,0.0011283795314007046,0.00044072893171522796,0.00047543887635644733
407,1456704114197573,7.968501914314111e-05,0.0011834167526496376,0.0005122611042298278,0.0005203397695773024
408,1456704114219574,7.069293204530474e-05,0.001163184728651012,0.0005590391201815993,0.0005285493657678186
409,1456704114235575,7.362200820467042e-05,0.0010710106437463746,0.0005694354910007243,0.0004980144788683415
410,1456704114256825,8.630795992306279e-05,0.0009252591334008923,0.0005444172266909643,0.00043697121901326724
411,1456704114278583,0.00010407866944560106,0.0007536457127867045,0.0004940735306915816,0.00036019358854153514
412,1456704114296084,0.0001205993038311466,0.0005856109313765857,0.00043204230905757033,0.00028379585925432263
413,1456704114316841,0.00012946054970469626,0.0004445854614533737,0.00037018384713254375,0.00022023602385180224
414,1456704114338793,0.0001262212269308683,0.0003424044160630761,0.0003152052669862265,0.00017508997071789982
415,1456704114355593,0.00011013708896369562,0.00027777567858518177,0.00026796884421577047,0.00014659975160893947
416,1456704114376846,8.470303252848219e-05,0.0002393265547329695,0.00022522952553499903,0.00012801844895080796
417,1456704114398636,5.663266206339352e-05,0.00021192560868645667,0.0001828060521561828,0.00011169220969275823
418,1456704114415605,3.3668760302459354e-05,0.00018368573499903535,0.00013886460314120575,9.310820515484804e-05
419,1456704114435809,2.212157869695428e-05,0.00015094668737534978,9.609606865765219e-05,7.319840260309711e-05
420,1456704114459609,2.502907520565587e-05,0.0001195575156067776,6.200131536290687e-05,5.805626469154435e-05
421,1456704114475609,4.149751137564563e-05,0.00010233118155852991,4.713292337107234e-05,5.6435246658666044e-05
422,1456704114496621,6.736270852171643e-05,0.00011391259311265138,6.181373328422829e-05,7.627663646200066e-05
423,1456704114519628,9.688123605212134e-05,0.00016501337694490938,0.00011234820189842998,0.00012164153642544066
424,1456704114536629,0.00012473897843110404,0.00025788815847561605,0.0001978846585158773,0.00019089363754964546
425,1456704114557631,0.0001474542758626516,0.00038426972730161896,0.0003088856431593983,0.0002763012770555168
426,1456704114578918,0.00016353900481101883,0.000526207037914944,0.00042780275476130274,0.0003649185210088411
427,1456704114595143,0.00017253779539824215,0.0006597056490647119,0.0005321578033476949,0.00044072965860373167
428,1456704114617652,0.0001737864275292005,0.000760611745921667,0.000599730725420023,0.00048812014219193236
429,1456704114640653,0.00016583439443084732,0.0008113991676794034,0.0006148229305747385,0.0004962623053417762
430,1456704114654654,0.00014692115626191869,0.0008065005042330007,0.0005737078206305184,0.0004630812465057601
431,1456704114677655,0.00011624157108347153,0.0007535326978432904,0.00048691769287191307,0.00039688197011351233
432,1456704114698953,7.549149969359068e-05,0.0006692769259271077,0.0003766950148676758,0.00031429061136021565
433,1456704114714676,3.0259988251204214e-05,0.0005722907850849952,0.0002699583322419295,0.0002348903398825339
434,1456704114737676,-9.182594901444829e-06,0.00047639403032639715,0.0001894825865597227,0.0001747534593068399
435,1456704114759678,-2.8372745373616018e-05,0.00038864578778715947,0.0001470340301219116,0.00014165423357795983
436,1456704114774679,-1.114900526932964e-05,0.00031195195561318253,0.00014118807490565274,0.00013373449512283828
437,1456704114797702,5.568163876534451e-05,0.0002490658512578462,0.00016026651019798445,0.00014170919491502266
438,1456704114818989,0.0001765279768893431,0.00020437896955667107,0.00018863495377519242,0.0001534547861785616
439,1456704114834702,0.0003422387160381884,0.00018246059370510468,0.00021341461468187404,0.0001592612740981436
440,1456704114857703,0.0005288818766010699,0.00018516784351929684,0.00022884682896384011,0.00015585099746059396
441,1456704114878711,0.0007016877136703305,0.00021004633479823737,0.00023705034784351787,0.00014753062021360307
442,1456704114895215,0.0008238956357040905,0.00025150160793210326,0.0002458673323439862,0.00014386781094952725
443,1456704114917723,0.0008681352525867186,0.00030410288566785454,0.00026546674397942734,0.00015487262272914
444,1456704114938726,0.0008264547465483605,0.0003658669625962915,0.0003048395862876296,0.00018595408007812968
445,1456704114954726,0.0007149340217375051,0.00043945462226805906,0.00036842646703749016,0.00023504440656665776
446,1456704114978727,0.000570386479996176,0.000530720594891382,0.00045318404314780014,0.00029304741750764353
447,1456704114998958,0.0004396013340358764,0.0006455539600869551,0.0005471507827751235,0.00034693720453467887
448,1456704115014751,0.00036464713430997434,0.0007862360430063873,0.0006307622206125087,0.0003837257549261679
449,1456704115037752,0.00036942609518773124,0.0009481568445355624,0.0006813803282032923,0.0003938408720449019
450,1456704115058861,0.00045223199127005013,0.0011178027760535153,0.0006802511065244605,0.0003734366291653879
451,1456704115075014,0.0005869341888808717,0.001273238596095212,0.0006197644337612738,0.0003254844742650585
452,1456704115097776,0.0007323644182047966,0.0013879858390035416,0.0005078932814157345,0.0002591463389402888
453,1456704115119063,0.000846331480758848,0.0014383486492805125,0.00036707556491977894,0.00018712808744118117
454,1456704115134781,0.0008988149562687564,0.001413201081611183,0.0002271831572574728,0.00012188424960203296
455,1456704115157781,0.0008797178447100729,0.0013236279663783274,0.00011543090556455199,7.25107094835538e-05
456,1456704115179081,0.0007996673217474102,0.0012077437472813128,4.782108789212194e-05,4.3732554827864046e-05
457,1456704115195793,0.0006852663046965604,0.0011253197432889485,2.575931219947827e-05,3.693794183920078e-05
458,1456704115217801,0.0005710085062101537,0.0011396420660691486,3.870153493239997e-05,5.204991705404892e-05
459,1456704115239097,0.0004894972677861742,0.0012904536738188946,7.095690080381051e-05,8.886660485969513e-05
460,1456704115254803,0.00046172116450202166,0.0015691627750973453,0.00010931964246320124,0.00014703201646690828
461,1456704115277804,0.0004904632012464772,0.0019107251672285724,0.00014829245871793048,0.00022452924339951927
462,1456704115299109,0.0005604585415126519,0.0022111273825589843,0.00019095047368138427,0.000315340473697542
463,1456704115314823,0.0006463654868210819,0.002365846933106274,0.00024538717481205493,0.00040762734147734584
464,1456704115337827,0.0007247237632829714,0.0023114163578459804,0.00031857891510730577,0.0004841811632836784
465,1456704115358827,0.0007830401448012045,0.002049556258412624,0.0004107262197018494,0.0005264186852027393
466,1456704115374845,0.0008212628830016388,0.0016435005189697359,0.0005129061867473201,0.0005213956976215402
467,1456704115397840,0.0008463195291783646,0.0011912285211928034,0.0006090944719275704,0.00046879465804700813
468,1456704115419109,0.00086424804119328,0.0007903703155301828,0.0006814363937334238,0.00038364032310652703
469,1456704115441849,0.0008745867548797219,0.0005102082121178735,0.0007164541084947513,0.0002923116308962573
470,1456704115457844,0.0008695025347449664,0.0003794231148866744,0.0007098967012983544,0.0002233174025559491
471,1456704115479012,0.0008374254376883085,0.0003891355606069358,0.0006684940677031098,0.0001972054191380444
472,1456704115502156,0.0007689255791895013,0.0005045888213041752,0.0006076634287914227,0.0002198789053180408
473,1456704115518140,0.0006621265935106898,0.0006782297495946574,0.0005455781905750888,0.0002813905347973667
474,1456704115539442,0.0005257946990291178,0.0008605057943241002,0.0004959017008577798,0.0003599827021095345
475,1456704115563142,0.00037916180817612805,0.0010082252552572068,0.0004627541990294498,0.00042957167021791064
476,1456704115578143,0.00024819993170389145,0.0010910716892086189,0.0004406617266714698,0.0004679343419890356
477,1456704115599161,0.0001590023483337634,0.001095788192546741,0.0004193539986656779,0.00046281877505426983
478,1456704115622162,0.00013012667498481806,0.0010269898022779401,0.000390354228371215,0.00041432674270660245
479,1456704115638164,0.00016648405990728733,0.0009041171212513946,0.00035152964545479855,0.0003335078065036127
480,1456704115662163,0.0002570863766497409,0.0007549382542002347,0.00030744121890927573,0.00023817313837006044
481,1456704115682184,0.00037768121447790505,0.0006069962898359171,0.00026594703064923916,0.0001473714950562769
482,1456704115706196,0.0004974108058319501,0.0004795972606005521,0.00023339962563698912,7.61565545848677e-05
483,1456704115721191,0.0005870257716994031,0.0003795340380005244,0.0002111557645123683,3.217253578648325e-05
484,1456704115742238,0.0006258815523937655,0.0003024969282496552,0.0001951219883452941,1.4931352195745876e-05
485,1456704115758199,0.0006060071672862757,0.00023918861003369938,0.00017833510920214202,1.765315373115158e-05
486,1456704115781230,0.0005328769479376918,0.00018255985711023362,0.0001549780715847732,3.072078789841136e-05
487,1456704115802413,0.00042319189036539107,0.00013232843000860356,0.00012359838485792793,4.5424921686763685e-05
488,1456704115818251,0.00030019331058781125,9.505374555332551e-05,8.797832720746257e-05,5.671497798083584e-05
489,1456704115841256,0.000187500576960626,8.06940849809197e-05,5.554525714457877e-05,6.409020113336599e-05
490,1456704115862256,0.00010318028687621905,9.796201515145569e-05,3.436063132681618e-05,7.051468428203874e-05
491,1456704115878465,5.5937959543104536e-05,0.00015053506872349075,3.00330196557744e-05,8.004376104182982e-05
492,1456704115900462,4.451828069868012e-05,0.00023513594925385535,4.36009389872561e-05,9.53094627866412e-05
493,1456704115922445,6.008106910082135e-05,0.00034161812810501116,7.096333278513158e-05,0.00011592646710106353
494,1456704115938347,9.03146663378389e-05,0.00045474434890660097,0.00010396979684779916,0.00013836055444739582
495,1456704115961444,0.00012374954263576608,0.0005571167164831018,0.00013283411866829944,0.00015715623771494727
496,1456704115982397,0.00015295824357981294,0.0006325542282339185,0.0001491577011956923,0.00016695028444622977
497,1456704115997456,0.0001757497469737863,0.0006691576764800856,0.00014862509727210004,0.0001645264027190581
498,1456704116021462,0.00019409196636856028,0.0006614172559686601,0.0001324319915167064,0.00015021125414115414
499,1456704116041482,0.00021144323788487644,0.0006109887853650007,0.00010681425606979082,0.00012807740074651975
500,1456704116057464,0.00023002242202552946,0.0005261133143733321,8.071132920237114e-05,0.00010476677824124402
501,1456704116080466,0.0002495070183578328,0.0004199809651991129,6.242176972904822e-05,8.731794609895171e-05
502,1456704116101518,0.0002675785470358469,0.0003085286973739752,5.663255163755777e-05,8.089313209412017e-05
503,1456704116117478,0.00028149929296408154,0.00020811827468771415,6.306747566772011e-05,8.734417217159246e-05
504,1456704116140479,0.00028947982660064447,0.0001333239352354867,7.725909913281075e-05,0.00010507882642468597
505,1456704116161516,0.00029111598849832556,9.495713921372401e-05,9.29611802995929e-05,0.00013005308501759852
506,1456704116177481,0.0002870062038012738,9.867110712341548e-05,0.00010494659083011015,0.00015729436832954751
507,1456704116200501,0.00027817082310320864,0.0001447153278784021,0.00011081871625490795,0.00018229159727287746
508,1456704116221507,0.00026590217225825805,0.00022908980071259082,0.00011111780454217317,0.00020180396497971505
509,1456704116237503,0.0002523032176425009,0.00034545399457704975,0.00010801225791487119,0.000213969234516419
510,1456704116260504,0.0002412154859400519,0.00048641935046586735,0.00010359678868027525,0.00021789032207768921
511,1456704116282060,0.00023875188148534247,0.0006431485321532394,9.889131198096923e-05,0.00021310990676897014
512,1456704116297561,0.0002525724893404533,0.0008035866565490213,9.405049431701661e-05,0.00019949576662276484
513,1456704116320567,0.000289556413316102,0.0009511432721907738,8.940283158125405e-05,0.00017784981928094202
514,1456704116341831,0.000352452863309845,0.0010658659046929011,8.632709870277485e-05,0.00015090570735029483
515,1456704116357569,0.00043697084462410705,0.0011288588969356281,8.711409662639882e-05,0.00012371742411339595
516,1456704116381570,0.0005310222168661667,0.0011290858101805517,9.377950266640779e-05,0.0001025489745080609
517,1456704116402519,0.0006170985572200123,0.0010707035410321285,0.00010667084429302223,9.244944777673035e-05
518,1456704116418298,0.0006773354742101898,0.0009783089680649156,0.00012397118500593127,9.489635865638264e-05
519,1456704116440565,0.0006995874003968929,0.0008965128152344608,0.00014262173007130162,0.00010716016449019475
520,1456704116464299,0.0006823388922944171,0.000880343500038537,0.0001601633990167208,0.00012413525358402134
521,1456704116478444,0.0006363394825279454,0.0009761576147489815,0.0001763168987393914,0.00014187497757315811
522,1456704116499734,0.0005815044870818447,0.0011989032864475342,0.00019337307539061242,0.00016083342475504527
523,1456704116521776,0.0005394411529568402,0.001516976780846082,0.00021543209497787587,0.00018662450601957724
524,1456704116537959,0.0005246349422815484,0.0018553226007560662,0.0002472265175525829,0.00022723930640540388
525,1456704116559738,0.0005388275755149265,0.0021190337677607115,0.00029293040359190653,0.00028764753789701933
526,1456704116581776,0.0005715236630796016,0.00222802099001212,0.000354514701753903,0.000364561703016217
527,1456704116598272,0.0006057259141664125,0.0021465723599104944,0.00042933100986247783,0.00044477721302267756
528,1456704116619780,0.0006251266303891263,0.0018948636864462183,0.0005081563437495281,0.0005091331922460411
529,1456704116642781,0.0006191913860000626,0.0015397393662410163,0.0005761184875807812,0.0005409640857350578
530,1456704116663782,0.0005848480982089573,0.0011714154200459747,0.000617618996390457,0.0005346635148703129
531,1456704116679783,0.0005255503860956945,0.000876018992140755,0.0006231545184210658,0.0004991679293899098
532,1456704116702814,0.00044921945776471605,0.000712199830484429,0.0005938620449259389,0.0004539371949664766
533,1456704116724005,0.00036613772894412603,0.0006972173165351998,0.0005408637435453716,0.000419645666534168
534,1456704116740045,0.00028696488713142676,0.0008056039571414269,0.0004800240544675965,0.00040886338529777766
535,1456704116762814,0.00022065934146426296,0.0009806441406994628,0.0004254263688010775,0.0004213882464357593
536,1456704116784238,0.00017260192466474777,0.001154654360459727,0.0003847920386399825,0.00044562210125232023
537,1456704116799569,0.0001437727604396842,0.0012703240768981538,0.0003581648665567133,0.00046426834431798677
538,1456704116822572,0.00013144740719550011,0.00129523209899009,0.00033951355141573805,0.0004613715712348526
539,1456704116843580,0.00013084441747813526,0.0012255645083320877,0.0003201505506058617,0.0004280104930608031
540,1456704116859576,0.00013663752186669276,0.0010802516304520013,0.00029258413067915833,0.0003649036760589294
541,1456704116883367,0.00014378293656394599,0.0008901111072000332,0.00025345521318248526,0.00028144332556802597
542,1456704116904013,0.00014800193321516547,0.0006870602577548129,0.0002047091837584368,0.00019201127498232813
543,1456704116919801,0.00014646198546358443,0.000496806733152649,0.00015288951496535993,0.00011131198302244082
544,1456704116950803,0.00013857820935727128,0.0003360178156110137,0.00010700469389771611,5.047003829369448e-05
545,1456704116964050,0.0001262532621810946,0.00021298678465891239,7.572247890796162e-05,1.495007358974184e-05
546,1456704116979806,0.00011304479006394914,0.00012992456699006385,6.476474132388167e-05,4.474269791304323e-06
547,1456704117004609,0.00010251578597696203,8.523706386254299e-05,7.525023995066029e-05,1.4439317110180764e-05
548,1456704117023616,9.661670760631882e-05,7.498769341152132e-05,0.00010336388624991176,3.8007586622553265e-05
549,1456704117039611,9.492561696915055e-05,9.354460813457782e-05,0.0001413478881412032,6.805253942467137e-05
550,1456704117062613,9.507184343951743e-05,0.00013384965337270025,0.00017953032109760826,9.843029950558112e-05
551,1456704117084193,9.40333294832498e-05,0.00018782950083225577,0.00020881921668730743,0.000124509354319339
552,1456704117099927,8.95764858373596e-05,0.0002472575944206965,0.0002228580359694226,0.00014327090023950276
553,1456704117122928,8.116318454219731e-05,0.000304947163774825,0.0002191649488264845,0.0001533444096751925
554,1456704117144213,7.008000355734949e-05,0.0003557649518798849,0.00019910638477625115,0.00015505233967303612
555,1456704117159932,5.892460671332775e-05,0.0003969245006998425,0.00016708382823596833,0.00015021161488781696
556,1456704117182931,5.0681823700603986e-05,0.0004274113144078345,0.00012944526711137304,0.00014145671350058856
557,1456704117203454,4.761548863316425e-05,0.00044691989639881167,9.337833493908729e-05,0.00013123452544126755
558,1456704117227449,5.029633617562553e-05,0.0004549539594847181,6.574007851886954e-05,0.0001209700137684188
559,1456704117242450,5.7180065380369634e-05,0.00045058295774441263,5.174670380365761e-05,0.00011084529421844233
560,1456704117263452,6.501383354980005e-05,0.000432898356263304,5.370479876218521e-05,0.0001002385369953535
561,1456704117280455,6.998173999865089e-05,0.0004017733691697664,7.02547254764323e-05,8.847525176312667e-05
562,1456704117303403,6.914873978765e-05,0.0003583885215502689,9.662478390443151e-05,7.542098860181519e-05
563,1456704117324404,6.165246093050394e-05,0.0003052762754859367,0.00012604273007097274,6.165632648646569e-05
564,1456704117340381,4.923721953165556e-05,0.00024614130846133093,0.00015187725184884353,4.8357281370117734e-05
565,1456704117370416,3.598256492980868e-05,0.0001858942566252885,0.00016967024121148773,3.72140881970934e-05
566,1456704117384366,2.7308299712205934e-05,0.00013092775023174107,0.00017826689911432447,3.054329054483203e-05
567,1456704117399455,2.848692292469958e-05,8.90864190857181e-05,0.00017967778852503457,3.135849673064857e-05
568,1456704117422489,4.2982425176854725e-05,6.866913660729494e-05,0.0001778058408756796,4.2950425909467634e-05
569,1456704117443471,7.099865158464662e-05,7.630900618182533e-05,0.00017653403393052682,6.771214153734617e-05
570,1456704117459466,0.00010868881734662686,0.0001143853997653536,0.00017787095329748298,0.00010546850017370085
571,1456704117483466,0.00014852471593511843,0.000179247609444016,0.00018091162552079937,0.00015214485847826905
572,1456704117507692,0.00018120524002481625,0.0002614912399044071,0.0001822439634496825,0.00019982086457965225
573,1456704117519694,0.000198999309797589,0.00034864870002183055,0.00017800474174662782,0.00023873904882690955
574,1456704117542694,0.00019957669803589574,0.00042937561099967757,0.00016701273525532743,0.0002608000193035119
575,1456704117563696,0.00018861686274297386,0.000497346067865596,0.00015352717874146356,0.00026308914592783615
576,1456704117579698,0.0001794690895208673,0.0005530960237369164,0.00014780924349901955,0.00024968614782419857
577,1456704117602328,0.00018919420335472486,0.0006028237447810122,0.00016336299342402106,0.0002306189981689205
578,1456704117625329,0.00023205401571486486,0.0006542703072631747,0.00021139065892439554,0.0002180803456308877
579,1456704117647330,0.00031300157428083115,0.0007110824314841761,0.0002947285357766087,0.00022138480646813303
580,1456704117662368,0.0004240431415701156,0.0007683677012686279,0.00040423732615750226,0.00024292213510348527
581,1456704117686316,0.0005452205615255787,0.0008127686616244005,0.0005197503422754728,0.0002770268486038989
582,1456704117700317,0.0006500983909964804,0.0008291071051994536,0.000615644094112908,0.00031233905353891383
583,1456704117722561,0.0007140592621922967,0.0008121665983431145,0.0006690167708928044,0.0003366369518535314
584,1456704117745563,0.0007227837302779828,0.0007781153235576884,0.0006673933657179326,0.00034209367115647276
585,1456704117759563,0.0006778889511672734,0.0007680640371188876,0.0006131307941567067,0.0003287905020157345
586,1456704117782565,0.0005970883594335412,0.0008381273766679593,0.0005228796134862763,0.000305025398139882
587,1456704117805952,0.0005079525161975701,0.001036253873052182,0.0004220817010914488,0.0002842226078960857
588,1456704117819953,0.00043717065168367357,0.0013741686699866842,0.00033631288080225786,0.00027965819071862314
589,1456704117842956,0.0003998152229131378,0.001808824183645874,0.00028286890383670733,0.0002991874887206564
590,1456704117865956,0.00039390345177920327,0.002246540743322577,0.00026625014224554335,0.0003421855967563629
591,1456704117879957,0.00040358323956921457,0.002572569318513896,0.00027932614122813887,0.00039997266430113766
592,1456704117903075,0.00040990622219784706,0.0026942200656098775,0.00030892727841141775,0.0004596258787831836
593,1456704117926076,0.00040355459888907633,0.00257683750371794,0.0003426655378172074,0.0005098022233888141
594,1456704117947078,0.0003922648641940325,0.0022552743692114156,0.00037397735446606127,0.0005461658527080303
595,1456704117963079,0.0003986100709779274,0.0018166421958761283,0.0004036673742448492,0.0005735784484964394
596,1456704117986103,0.00044928910903239,0.0013644425757179432,0.0004376031571191045,0.0006032974369028659
597,1456704118007393,0.0005613442072485934,0.0009819881776361305,0.00048187918814162267,0.0006462997007726124
598,1456704118023399,0.0007316317775956332,0.0007110454161588514,0.0005383428118097486,0.000706633669788699
599,1456704118046339,0.0009339758438105626,0.0005516205330247622,0.0006031988408532013,0.0007787636831885627
600,1456704118066348,0.0011253722104052697,0.00047720315915709673,0.0006690814366416309,0.0008500389887040972
601,1456704118083394,0.0012593369378639258,0.000454022351611905,0.0007285372640160531,0.0009062681686015021
602,1456704118106327,0.0013014711321098207,0.0004551736303847792,0.0007763610977167331,0.0009371055920443772
603,1456704118127395,0.001240854759841485,0.0004664795063137796,0.0008096045346403095,0.0009386635957040623
604,1456704118143102,0.0010926619283378462,0.00048536230723623865,0.0008258769797730818,0.0009125823404429976
605,1456704118166103,0.0008919246729253528,0.0005155484835953865,0.0008215605945330452,0.0008628253904558492
606,1456704118187357,0.000682409533736602,0.0005605883086476463,0.0007914711614115341,0.0007926757011547942
607,1456704118202506,0.0005052700834039605,0.0006188633706227522,0.000730674815477029,0.0007039798459929099
608,1456704118225507,0.00039013041314220787,0.0006818211497790017,0.0006380615583189372,0.0005989486279207338
609,1456704118246509,0.0003494882138145982,0.0007357773300710916,0.000520174819567926,0.00048306972256358636
610,1456704118262509,0.00037731047666153875,0.0007663125172275211,0.0003931108023041984,0.00036703390183456195
611,1456704118286304,0.00045304018832307706,0.0007633630519157063,0.00028064032120014333,0.0002662157514478284
612,1456704118306967,0.0005509324460309292,0.0007247560850954052,0.00020832538208180183,0.00019767347152492253
613,1456704118322739,0.0006517774037828641,0.0006565237995594288,0.00019561456159813178,0.00017601734372840977
614,1456704118344740,0.0007518168122028624,0.0005699125720417859,0.0002493090465283259,0.00020999855278093803
615,1456704118367048,0.0008640645685145678,0.0004768370335505312,0.00036135536701252757,0.0003009624702004204
616,1456704118382742,0.001010438926444863,0.00038641268263240285,0.0005118441256045131,0.0004430079555825343
617,1456704118411883,0.001207505326556824,0.0003044195677262674,0.0006756248498677871,0.0006238850854435982
618,1456704118426877,0.0014520995245364383,0.00023552513647226637,0.0008294476243449013,0.0008258936852619115
619,1456704118442877,0.0017139101201040913,0.0001861391823464924,0.0009567490234944725,0.0010269095930980758
620,1456704118464879,0.0019394826547834974,0.0001651960577070284,0.0010488874966287033,0.0012022891286882506
621,1456704118486885,0.0020670219359976696,0.00018145778674415677,0.0011036487357473706,0.001328179177109557
622,1456704118502891,0.0020464869144661627,0.00023842573699861191,0.0011228218451311256,0.001385837913439576
623,1456704118524892,0.001857456181898568,0.0003299525051106473,0.0011101351579099127,0.0013657141948304255
624,1456704118547894,0.0015186635430311471,0.0004395597675895991,0.0010697099634654856,0.0012698936546694716
625,1456704118562894,0.0010864461856533723,0.0005442699395901782,0.0010047644770595954,0.0011121231117888564
626,1456704118586091,0.0006428836179124987,0.000621185492971823,0.0009169140234236068,0.0009155665045695747
627,1456704118608079,0.00027724791767352517,0.0006539483586894369,0.0008070070048532467,0.0007091982725560386
628,1456704118623067,6.595534977239743e-05,0.000636909672340083,0.0006778285491302044,0.000523813338578694
629,1456704118645095,5.600217675014609e-05,0.0005762722427527002,0.0005374258202956931,0.00038799358732550507
630,1456704118667874,0.000255193081490414,0.000488501541183588,0.00040079019693971756,0.0003237553111363522
631,1456704118682875,0.0006305479539719556,0.0003965954292080496,0.00028831568860979666,0.000341912208878141
632,1456704118704669,0.001114980602416412,0.00032475505625982707,0.00022131361081096927,0.0004383936562563724
633,1456704118727671,0.0016213015336936853,0.00029225816283190274,0.00021631007285912658,0.0005936317569958774
634,1456704118742672,0.0020610476692660934,0.00030807099298951063,0.00028001371546746703,0.0007764377859179809
635,1456704118764674,0.0023638582018857884,0.00036815341858752995,0.0004062712391506573,0.0009517521841578204
636,1456704118787962,0.002492247847846651,0.0004565662989523102,0.000575824037834754,0.001089747997001761
637,1456704118803445,0.002447434181939835,0.0005497959855315064,0.0007592466597507342,0.001173106211271166
638,1456704118824277,0.0022642814851081927,0.0006227514282580279,0.0009228348859110176,0.0011999083111906297
639,1456704118847278,0.001996955487101635,0.000655224746184473,0.00103646092634821,0.0011811513168931056
640,1456704118862442,0.0017005853736288294,0.0006378703139798828,0.0010815461939942942,0.001133976699444442
641,1456704118892290,0.0014162993464662938,0.0005758921909461718,0.0010564718076457027,0.001073553113163883
642,1456704118907797,0.0011656331261921536,0.00048802293288716846,0.0009768083135911672,0.0010071829951294586
643,1456704118922798,0.0009555165907152557,0.0004001452488941866,0.0008695403458020804,0.0009331450146504275
644,1456704118944800,0.0007893335780181712,0.00033638653576695325,0.0007633230001931182,0.0008445177275243904
645,1456704118968801,0.0006763899226919449,0.00031233975121850956,0.0006787569216603153,0.0007358746663435242
646,1456704118982800,0.0006334996135347088,0.0003331635399919426,0.0006224720987477322,0.0006094012607771
647,1456704119004866,0.0006775587278760213,0.00039544776301247134,0.0005870440447769162,0.0004772864269755318
648,1456704119033837,0.0008138822276524818,0.0004895409862881743,0.0005565522538314712,0.0003590973725329066
649,1456704119049034,0.0010279588869918498,0.0006003346720437956,0.000515363322925977,0.0002753553448906401
650,1456704119065076,0.00128605282266493,0.0007076256827888453,0.00045597350027286245,0.00024034469500733182
651,1456704119088286,0.001544348580162082,0.0007887774660405026,0.0003818191702639545,0.00025733298092492753
652,1456704119109552,0.0017613829283055998,0.0008247957974159613,0.0003036919222753338,0.0003178811975475056
653,1456704119124552,0.0019075963918218912,0.0008076152266308389,0.00023235172538997378,0.000404805303748995
654,1456704119148555,0.0019687363348303106,0.0007442860936505782,0.00017222273219777526,0.0004970016267017853
655,1456704119170554,0.001943763139793948,0.0006546648371666813,0.00012004915815562606,0.0005744474864850614
656,1456704119184554,0.0018402289763334865,0.0005627698121968884,6.916278519362302e-05,0.0006226027318946083
657,1456704119208256,0.001670148550604562,0.00048603831947241873,1.7008057752196008e-05,0.0006359713939715418
658,1456704119228990,0.0014480882651405505,0.00042860225442901154,-2.7750689611709425e-05,0.0006202611037338305
659,1456704119245251,0.0011915988420459162,0.00038274806317937723,-4.201137006905146e-05,0.0005919856986719781
660,1456704119269261,0.0009227291595581995,0.000337736944916703,8.770631636856307e-06,0.0005744231700705229
661,1456704119289212,0.0006686394473777643,0.00029029508620049004,0.00016100938733298932,0.000590032317912802
662,1456704119304223,0.00045969917809581283,0.0002498062296314788,0.0004390456055784907,0.0006513831884954987
663,1456704119328334,0.0003246625741698609,0.00023457143327830794,0.0008413385038531015,0.0007542399879440261
664,1456704119349227,0.0002837355449082716,0.0002611339446023959,0.0013321481835658797,0.0008763474995352343
665,1456704119365228,0.0003412011373779342,0.00033288787586454216,0.001842918138989202,0.0009832975291849159
666,1456704119388171,0.0004801068539610935,0.00043465318362428956,0.002284762382135531,0.0010396636915706355
667,1456704119408883,0.0006622620869314611,0.0005367184745719545,0.002569842829192517,0.0010212055370900088
668,1456704119424668,0.0008361719720131997,0.0006068381439004922,0.002636032333454271,0.0009235470105094854
669,1456704119447670,0.0009523641955845083,0.0006243310298476583,0.002467262239895945,0.0007643236065388916
670,1456704119468677,0.0009808702372617103,0.000589159757706921,0.0021023435259702366,0.0005784762567714558
671,1456704119484672,0.0009227024523782256,0.0005215921214263146,0.0016280919131401613,0.00040883998062340836
672,1456704119507407,0.0008089389386427794,0.00045312933621840547,0.001157537223133153,0.0002953085624549647
673,1456704119530409,0.0006871273456718473,0.00041362071023008114,0.000799352502619036,0.00026548761232214526
674,1456704119544410,0.0006013419053494156,0.00042051109743256087,0.0006284341554243758,0.0003287161257170176
675,1456704119567410,0.0005750864901372701,0.00047405093808273964,0.0006677343545433528,0.00047443968397442387
676,1456704119591342,0.0006040178069928134,0.0005590259073819526,0.0008871512649250469,0.0006751695870144823
677,1456704119605075,0.00066040795742749,0.0006511189052032108,0.0012183836977477927,0.0008933861671547455
678,1456704119628079,0.0007064569494284331,0.0007250020370416782,0.0015788040864404699,0.0010907720373589114
679,1456704119650862,0.0007104892130588854,0.000761373913138953,0.0018951964367258107,0.0012373025330377641
680,1456704119664862,0.0006591605418725354,0.000751142195093776,0.0021197946716790743,0.001317350168762257
681,1456704119688153,0.0005607213799859874,0.000696309181679352,0.0022349682847523393,0.001330724702046717
682,1456704119711163,0.00043895764603740913,0.0006080200778342329,0.0022472993484025225,0.0012886446492550746
683,1456704119726164,0.0003221843451412476,0.0005025562652699938,0.00217534171090624,0.0012069265801815674
684,1456704119748166,0.00023341703064699688,0.00039645457109084873,0.00203737015951296,0.0010996390685339675
685,1456704119771167,0.00018580884906210806,0.000302377654697298,0.001845199371538793,0.000975669839851799
686,1456704119792251,0.00018358489561340078,0.00022704967719564963,0.0016069092459058102,0.0008389563810652974
687,1456704119807753,0.00022553708248679587,0.00017149782899021618,0.0013358195355229468,0.0006915526043570803
688,1456704119830755,0.00030728370268042274,0.00013287138512862935,0.0010585062593953321,0.0005377254335003999
689,1456704119844756,0.0004204084391067211,0.00010671762947205708,0.0008146169013705807,0.00038702690040860537
690,1456704119868756,0.0005500215966942753,8.874583865108948e-05,0.0006463771717582154,0.0002548103187053439
691,1456704119890762,0.0006745267232927396,7.573277181301773e-05,0.0005826995329245011,0.00015977739208519458
692,1456704119904775,0.0007704144053798431,6.593755400890672e-05,0.000626806584066616,0.0001193696576058074
693,1456704119927776,0.00082129665652623,5.9574653880607025e-05,0.0007544718629579573,0.00014463527095980855
694,1456704119950777,0.0008267238900441066,5.938527550504824e-05,0.0009237265572524262,0.00023637080902253656
695,1456704119971779,0.0008052132025748526,7.066098201885605e-05,0.0010905360289755603,0.00038387842740871393
696,1456704119995986,0.0007884576074694391,9.989119736697809e-05,0.0012224721605078837,0.0005667832615636637
697,1456704120011252,0.0008087192287356519,0.00015185957381806976,0.0013046971123226278,0.0007593661336951339
698,1456704120032244,0.0008857047721972824,0.00022618744139794885,0.001337489565219466,0.0009361087260304775
699,1456704120048002,0.0010194515002541287,0.00031516801293385906,0.0013288932204662152,0.0010767889148901979
700,1456704120071249,0.0011916099104718949,0.0004044936280562048,0.0012876175933821462,0.001169615475126514
701,1456704120092316,0.0013724982647517973,0.0004771120320684677,0.0012197372612369813,0.0012116215944332018
702,1456704120108166,0.0015293511587998697,0.0005187247386550217,0.00112945079211272,0.0012066162832589664
703,1456704120130938,0.0016328096041388683,0.0005224475509291751,0.001021458400399761,0.0011618821834326611
704,1456704120151981,0.0016612738653118654,0.0004905404691214576,0.0009020985591772296,0.0010850816272069738
705,1456704120167940,0.0016037820153548905,0.00043261640399765844,0.0007781639918642427,0.000982466242212853
706,1456704120191380,0.0014613826320007692,0.00036143485431434344,0.0006545513026127076,0.0008586922207126799
707,1456704120212400,0.0012460722923925843,0.0002883729074493891,0.0005327566280779252,0.000717644397018559
708,1456704120227399,0.0009767584261756537,0.00022049131708361993,0.00041134145330389964,0.0005631849852759909
709,1456704120249243,0.0006734057755102206,0.00015996362269453022,0.0002879344412054139,0.00039910135404226134
710,1456704120272355,0.00035204442258104533,0.00010531331978981788,0.00016136315958328556,0.00022847659413127692
711,1456704120287392,2.3151013958244685e-05,5.328640624534017e-05,3.258859850917473e-05,5.3370401865496554e-05
