,timestamp,roll,pitch,yaw
0,1456704106043305,2.8202848274500347e-05,0.00040600891104312204,0.00043797859823741116
1,1456704106066306,0.0001616081002422645,0.0004189365680202461,0.00039416156486451093
2,1456704106082315,0.00028592855554309164,0.0004185041744439296,0.000351094058282948
3,1456704106103318,0.00039214617532653336,0.00039702452012772355,0.0003078545911092111
4,1456704106127529,0.0004715447398057029,0.0003568514680068171,0.00026243089314590984
5,1456704106142326,0.0005172589310169359,0.00031127853355490627,0.00021320180311312824
6,1456704106163322,0.0005259679298270014,0.0002806578727547938,0.00016134265599337933
7,1456704106187338,0.0004987843269385593,0.00028448128850521365,0.00011263570693565371
8,1456704106218355,0.0004410754803623537,0.00033280837814660027,7.724037085196083e-05
9,1456704106219350,0.0003616150690853061,0.00042142199444060127,6.714037368896058e-05
10,1456704106240353,0.0002713638379933287,0.0005332900095856832,9.224197695506471e-05
11,1456704106269352,0.0001817874325463886,0.0006453913553466887,0.00015661992990976175
12,1456704106279367,0.00010289203068597107,0.0007371378945766422,0.0002562295392877484
13,1456704106309583,4.1783951110156314e-05,0.0007963332235680862,0.0003788627316619192
14,1456704106336584,2.44197266747444e-06,0.0008207589454425791,0.0005063748110451867
15,1456704106360586,-1.3505299109737048e-05,0.0008162150674697244,0.0006184600645545183
16,1456704106361749,-5.942099794358439e-06,0.000793167158083043,0.0006968750987423306
17,1456704106380593,2.3703581944165077e-05,0.0007635636907520165,0.000729107090908116
18,1456704106405775,7.132031197858876e-05,0.000738007882689138,0.0007107920148890602
19,1456704106420773,0.00012860590702239735,0.0007227844763664361,0.0006464514016543056
20,1456704106439826,0.00018272845836352644,0.0007168566763295983,0.0005483485539952538
21,1456704106464769,0.00021875457659514786,0.0007103000573397691,0.00043361513700814847
22,1456704106480644,0.0002253579394103876,0.0006864838414126917,0.00032030495091203703
23,1456704106500856,0.00020223745194652818,0.0006294703587575936,0.00022347650931024918
24,1456704106516857,0.00016570012043870164,0.0005352726112479451,0.00015243588808508732
25,1456704106539859,0.00014853768466839947,0.0004220618069649943,0.00010977278668688192
26,1456704106560859,0.00019217804002653101,0.00033284633002544055,9.213304746719526e-05
27,1456704106577386,0.00033220455944300175,0.0003266362937543705,9.224917299806881e-05
28,1456704106599894,0.0005815257127006954,0.00045966602411660104,0.00010165550780827868
29,1456704106620117,0.0009178569704836037,0.0007632421096626509,0.00011340120493588164
30,1456704106636894,0.0012826147773411076,0.0012263387913871038,0.00012379327294580964
31,1456704106659896,0.0015956457170291632,0.0017892436018083773,0.00013221454670502304
32,1456704106680626,0.0017840671346237519,0.0023513054125634163,0.00013893043465707503
33,1456704106703263,0.0018153861288288575,0.0027925855364919756,0.0001422516958504482
34,1456704106719975,0.0017193780540227443,0.0030057168675457027,0.0001373127223458448
35,1456704106739977,0.001585114613701059,0.0029299783524624878,0.00011813445370589882
36,1456704106762979,0.0015299123507398992,0.002576085663630828,8.278261990328511e-05
37,1456704106780501,0.0016507881343273815,0.002030858779328927,3.9421417546825045e-05
38,1456704106800294,0.0019788925624887087,0.0014372830598816811,9.986323984835539e-06
39,1456704106825008,0.0024578915777930216,0.0009550733640925573,2.849689536912625e-05
40,1456704106840009,0.002957731489425639,0.0007148946440883,0.0001326289302737697
41,1456704106862011,0.003320315126515892,0.000781776805573105,0.00034979326670725534
42,1456704106883839,0.0034201545351411214,0.0011389580743922198,0.0006820253121157875
43,1456704106899831,0.003216325481747399,0.0016952693461342358,0.0010962226217023502
44,1456704106920793,0.0027745494544624627,0.00231173886516448,0.0015259129596065723
45,1456704106943829,0.0022492474717819315,0.0028388620908405813,0.0018867388924546308
46,1456704106959754,0.0018306598646247473,0.0031546291562187076,0.0021015552664800092
47,1456704106982158,0.0016757086380286231,0.003193905207010675,0.0021260142543030208
48,1456704107003827,0.0018485308746156565,0.0029619592055926134,0.001964791154880479
49,1456704107019824,0.0022946142820660393,0.002529097447310704,0.0016722744382351635
50,1456704107041675,0.0028600907199111034,0.0020088437248497533,0.0013372216975355616
51,1456704107064671,0.0033483775551567787,0.0015268667698803585,0.0010560992497087227
52,1456704107080192,0.0035894854102164497,0.0011897656383825501,0.0009035034420612757
53,1456704107102209,0.00349320265275808,0.001061688589988389,0.0009096614678076344
54,1456704107123215,0.0030682318652674842,0.0011540295153050846,0.0010532602856314578
55,1456704107140212,0.0024070308004379977,0.001429803525031831,0.0012721258702254564
56,1456704107162213,0.0016494676435974305,0.0018194256789375476,0.001486937909275989
57,1456704107183228,0.0009420358499523454,0.002240096542166772,0.0016282895233864275
58,1456704107200234,0.00040508121219506524,0.0026107425825991266,0.0016570358633359312
59,1456704107222235,0.0001131603984515259,0.0028599674649867827,0.0015713782157094512
60,1456704107243236,8.765165644628668e-05,0.002931513144249438,0.0014000824335906395
61,1456704107260245,0.00029831448792136536,0.002793810680796056,0.0011875032283802408
62,1456704107282759,0.0006712945255521485,0.0024549148125285196,0.0009791925853460013
63,1456704107303675,0.001103100602670865,0.0019755978659278636,0.0008143248844088388
64,1456704107320675,0.0014810876732026781,0.0014688649289370116,0.0007247106129038895
65,1456704107342473,0.0017092539773737121,0.001078041096860917,0.0007348613506326416
66,1456704107363469,0.001733853809956323,0.0009360758783929113,0.0008574374128383891
67,1456704107380484,0.0015595162040824091,0.0011193624221507048,0.0010835382653994075
68,1456704107402407,0.0012473762926392938,0.0016138130628449829,0.0013741372865896805
69,1456704107423408,0.0008935583713071788,0.0023072614949750294,0.0016622924546949478
70,1456704107440410,0.0005959206898326342,0.003013499036238566,0.0018717797518214123
71,1456704107462354,0.0004230880758209868,0.003523488415640842,0.0019476148865753286
72,1456704107483611,0.0003981233946384981,0.0036704919399903283,0.0018840689013525079
73,1456704107507194,0.0005011805211206053,0.003389225465165145,0.001733782650291115
74,1456704107522195,0.0006866779973025833,0.0027476261056821544,0.0015901592131911675
75,1456704107543496,0.0009052796411283113,0.0019364997619920408,0.001549666413132589
76,1456704107560197,0.0011204038012552681,0.001216504221084324,0.0016716466872564956
77,1456704107582467,0.001312795656395817,0.0008378780993035782,0.0019537344733068
78,1456704107603169,0.0014737862834041876,0.0009587133604957494,0.002332223387286724
79,1456704107619941,0.0015950309898682515,0.00158864857157112,0.0027057821486438077
80,1456704107641941,0.0016647834610148062,0.0025779549776175723,0.0029729585961512867
81,1456704107662943,0.0016751065534824732,0.0036595849065711996,0.0030693426945268996
82,1456704107680449,0.001634059500497156,0.004534397380625337,0.0029891076953380384
83,1456704107701965,0.0015704951184091769,0.004970152023427886,0.0027805631833545054
84,1456704107722972,0.0015234030167115926,0.004873529593615379,0.002517641374245387
85,1456704107739967,0.0015202597726330558,0.00430447652972049,0.002263078535882187
86,1456704107761970,0.001558860988651312,0.0034328781808732087,0.0020436835568923306
87,1456704107783671,0.0016054620749988938,0.0024675978665092938,0.001848900784179281
88,1456704107800396,0.0016105964327756065,0.0015939824061136543,0.001648793731190819
89,1456704107824187,0.001533180299816088,0.0009382180799745523,0.0014184432226627677
90,1456704107843487,0.0013604960613816392,0.0005566441187990013,0.001156220698551585
91,1456704107860190,0.0011148788166457826,0.0004408403810197633,0.0008890510381888697
92,1456704107882507,0.0008442889799121874,0.0005319065579186185,0.0006640460821350191
93,1456704107903697,0.0006020225050086333,0.0007405044184759515,0.0005309724110104858
94,1456704107934762,0.00042666427497763717,0.0009698960453574615,0.0005229255989401965
95,1456704107942471,0.0003322041959142739,0.0011387396318928297,0.0006426365270592021
96,1456704107965472,0.0003109659315566826,0.0011995301959966196,0.000859460154362485
97,1456704107986499,0.00034452359682792303,0.0011479179234282226,0.001118278116960615
98,1456704108002691,0.00041462492070345244,0.001019277369158168,0.001357067963390913
99,1456704108025691,0.0005081827467360717,0.00087257205493878,0.0015260034551964176
100,1456704108046511,0.0006157039320424645,0.0007664447953435371,0.0015999159647043682
101,1456704108070511,0.0007271022510481117,0.0007361507165534378,0.001579412837051963
102,1456704108085763,0.0008292985091524287,0.0007804094729375083,0.001482475161768668
103,1456704108106841,0.0009069804870810912,0.0008638204742304256,0.0013335816365488257
104,1456704108121842,0.000945234341556919,0.0009340324148101183,0.0011574790800506953
105,1456704108145844,0.0009328230580997712,0.0009457815620983661,0.0009797142153461786
106,1456704108166105,0.0008659839421584952,0.0008801386395020957,0.000830003751878406
107,1456704108182563,0.0007520106326650489,0.0007501206321261017,0.0007421544392766746
108,1456704108212069,0.000610170123522153,0.0005919353066884689,0.0007471898951214173
109,1456704108226103,0.0004678513532873847,0.0004486154328857828,0.000862160448702884
110,1456704108242069,0.0003529800804430658,0.0003547569096746786,0.0010813281308444187
111,1456704108265071,0.0002864616887846064,0.0003279454036672937,0.0013757110873892585
112,1456704108286082,0.00027792134585435366,0.0003679016210584678,0.0017016902544181307
113,1456704108302120,0.00032524072198764287,0.0004609784697451483,0.0020136141396217325
114,1456704108325119,0.0004162800638252952,0.0005862093839981572,0.0022736344363354995
115,1456704108349120,0.0005313321558140887,0.0007199388394585182,0.0024552491214868853
116,1456704108362330,0.0006463862048517113,0.0008385338157611909,0.0025418566491885435
117,1456704108385501,0.000738158824999131,0.0009206650147828259,0.002524133266106695
118,1456704108406274,0.000791050531332393,0.0009504463148967241,0.002399356298777315
119,1456704108421999,0.0008041267630489698,0.0009210062316603114,0.0021735681674489873
120,1456704108447002,0.0007940773515226975,0.0008368393603517039,0.0018652362235555351
121,1456704108466009,0.0007899844411535006,0.00071348340649133,0.001507455502699675
122,1456704108489771,0.0008196621322311918,0.000574155835411275,0.001145519449515296
123,1456704108505778,0.0008937875887070069,0.00044415284767654263,0.0008285797391229779
124,1456704108526116,0.0009973673385935908,0.0003445942900850583,0.0005975498355923042
125,1456704108542780,0.0010942228613760616,0.0002873261241414756,0.00047420466253210295
126,1456704108564784,0.0011419459675046284,0.0002725657803530444,0.0004563407760061911
127,1456704108586575,0.0011092515270404585,0.00029025423899066714,0.0005207834537897263
128,1456704108601870,0.0009885834946081092,0.0003248568106109318,0.0006324781650743016
129,1456704108624871,0.00080116436974214,0.00036171665449970036,0.0007563381175959169
130,1456704108645874,0.0005943012101235221,0.00039210481594500145,0.0008686420350771973
131,1456704108661874,0.00043086602438217474,0.00041481414316860013,0.0009648065544322328
132,1456704108685724,0.0003716630751747474,0.00043414098381692806,0.0010601623373928581
133,1456704108706179,0.00045462432884619343,0.0004560670829270339,0.0011816893795949931
134,1456704108721912,0.0006781840780516806,0.000485238754030265,0.0013524012041996893
135,1456704108745914,0.000996409514691031,0.0005243752663396747,0.0015743939275132744
136,1456704108766915,0.0013295763349450698,0.0005754565391429767,0.0018184244866571234
137,1456704108782654,0.0015878133453034024,0.0006402343587181217,0.002025886492869105
138,1456704108805381,0.001700093404014202,0.0007182269712182694,0.002124430613860963
139,1456704108826371,0.0016383674739415455,0.0008033101608037196,0.0020533134729486084
140,1456704108842154,0.0014280264684815214,0.000882751683527652,0.0017903970571984083
141,1456704108865160,0.001140876136391851,0.0009422473228539806,0.0013708224204882855
142,1456704108894547,0.0008733411999065986,0.0009768684199314124,0.0008888359871389026
143,1456704108902243,0.0007173745573539636,0.0010032811713941833,0.0004790468690079569
144,1456704108925245,0.0007326527553770258,0.0010660944427377482,0.00028009797737570325
145,1456704108947247,0.0009271976367728776,0.0012319374135492996,0.00039027321611239643
146,1456704108962246,0.0012517524441626917,0.001568423154450646,0.0008289554741444099
147,1456704108985484,0.0016114538715478162,0.0021110530571888365,0.0015184710635428983
148,1456704109007688,0.0018946891155731211,0.002829126953830318,0.002296633646588866
149,1456704109022694,0.002011903270282315,0.0036092014273453404,0.0029610192332089383
150,1456704109046473,0.0019292485001544118,0.004274351428654883,0.0033333210008469924
151,1456704109067687,0.0016805228367792221,0.004642480539462564,0.0033208018658257596
152,1456704109084199,0.0013504284953786668,0.004601359477741515,0.002948774099751525
153,1456704109105492,0.001037914184890543,0.004160397466134163,0.0023479497744326454
154,1456704109127493,0.0008188393351428948,0.003447632264551952,0.0017009335766839401
155,1456704109144494,0.0007249154610114495,0.0026529660921361256,0.0011722938569338202
156,1456704109165496,0.0007439179362194754,0.001950851883052105,0.0008538864699739086
157,1456704109187680,0.0008345115683595054,0.0014430825387892713,0.0007469034518436388
158,1456704109208732,0.0009451095845352264,0.0011435726799606377,0.0007819789404213437
159,1456704109225734,0.001029342556290861,0.0010007928367507652,0.0008614463476572964
160,1456704109246737,0.0010556557637004334,0.0009376643798914578,0.000901822132815717
161,1456704109267744,0.0010117530793882347,0.0008876426392683345,0.0008598353986575272
162,1456704109285263,0.0009054603009919107,0.0008142395859924355,0.000736416892683118
163,1456704109306755,0.0007623651342324705,0.000712235715904279,0.0005635613650516281
164,1456704109328754,0.00061894607665563,0.0005968002013796232,0.00038440157768735274
165,1456704109345600,0.0005107835273219747,0.0004892387457832982,0.00023605741617371883
166,1456704109366602,0.0004593006663115248,0.00040601078356666023,0.00014009084119597626
167,1456704109388424,0.0004635512119786149,0.0003537158027486179,0.00010054082793344271
168,1456704109404958,0.0005020820842638286,0.00032941168867395905,0.00010710640794081642
169,1456704109426939,0.0005443258877191172,0.00032403091633509266,0.00014096309122407406
170,1456704109455941,0.0005652937913785593,0.00032663340533226385,0.00018133357251948616
171,1456704109464976,0.0005555399858252308,0.00032797937441575095,0.00021126436662019085
172,1456704109487451,0.0005217158720361006,0.00032272951471169547,0.00022126352647742738
173,1456704109507961,0.0004790075417476958,0.0003101315645917699,0.00021005096770649643
174,1456704109525204,0.00044098997103369435,0.0002932412150329405,0.0001826691456302788
175,1456704109547174,0.00041269797751989517,0.0002768124093751143,0.00014710615895802343
176,1456704109567965,0.00039004791583531495,0.0002644332172653756,0.0001109229203546748
177,1456704109585666,0.00036503840086855947,0.0002561938574073151,7.907122251475567e-05
178,1456704109606973,0.0003329409774332611,0.0002483135797343013,5.342705567807553e-05
179,1456704109628975,0.0002966955896189799,0.00023516129111541816,3.388897784299305e-05
180,1456704109644976,0.0002658752219213201,0.00021259892020913175,2.0375604547032857e-05
181,1456704109666976,0.0002513952369964715,0.00018075817633123972,1.4758462190919761e-05
182,1456704109688278,0.00025971952814082133,0.00014478317772077223,2.1786593572406177e-05
183,1456704109707287,0.0002900066104229945,0.00011328856556517652,4.845782674219702e-05
184,1456704109733555,0.00033521534924416823,9.543249391713056e-05,0.0001018940783701316
185,1456704109748295,0.00038569572890421165,9.795491430405924e-05,0.0001862736691668158
186,1456704109765291,0.0004327732128610539,0.00012316698950419954,0.0002996506358881646
187,1456704109787661,0.0004705958946185865,0.00016810444600494346,0.0004316866682584178
188,1456704109810234,0.0004962466550447367,0.00022459936161931243,0.0005634835533381526
189,1456704109825235,0.0005094200752355937,0.00028030574818784643,0.0006705746914972524
190,1456704109847237,0.0005128175069642423,0.0003211988974773765,0.0007293614096343787
191,1456704109876534,0.0005131378586939046,0.00033569824133091553,0.0007258268319910296
192,1456704109885035,0.0005214167155414819,0.00031922740127852316,0.0006637606948797332
193,1456704109906551,0.0005514055583239809,0.00027701837743468986,0.0005689145241036105
194,1456704109929552,0.0006155338334151904,0.00022350162843878213,0.0004861495379905541
195,1456704109945554,0.0007191816024335029,0.00017834129553567294,0.000468580994009888
196,1456704109966553,0.0008553085936698106,0.00016059410690352197,0.0005602773057967463
197,1456704109990061,0.00100258369735056,0.00018270668266128222,0.0007768426343468569
198,1456704110005576,0.0011297066269286777,0.00024569287503404283,0.0010909751494265947
199,1456704110026577,0.0012056596221315797,0.00033688421577344433,0.0014314691785530641
200,1456704110049578,0.001211788968528932,0.00043203489617283405,0.0017012550915859964
201,1456704110065580,0.0011500185406241971,0.0005029420253971089,0.0018115385383462258
202,1456704110087640,0.0010433642762323417,0.0005291725556205116,0.001718762211012859
203,1456704110109794,0.000928704357872473,0.000509208819858513,0.0014467014617436547
204,1456704110125796,0.0008451583713229171,0.00046529854154338696,0.0010819961286933537
205,1456704110146799,0.0008227781277797932,0.0004391285666825063,0.0007442776314184785
206,1456704110169058,0.000874988059511563,0.00048002800694229165,0.0005436362772772403
207,1456704110191230,0.0009956442833651859,0.0006298926670518408,0.000542623742954623
208,1456704110206525,0.0011601999955964612,0.000908300301842531,0.0007366770987375937
209,1456704110228739,0.0013308995688835759,0.0013003184804870986,0.0010587702337804834
210,1456704110251742,0.0014660333596926822,0.0017511407270915168,0.0014051277288591223
211,1456704110266528,0.001531671465251338,0.0021737788037765548,0.0016719676183167074
212,1456704110289619,0.001512378284834609,0.0024730125740339928,0.0017899647640095822
213,1456704110311403,0.0014168251645278504,0.0025790790376816475,0.001743945712713054
214,1456704110326404,0.0012752326648134318,0.0024748845474030054,0.0015705258639241255
215,1456704110349121,0.001128459646078619,0.0022008508941851507,0.001335497389757945
216,1456704110371406,0.0010127685267286462,0.0018345384315205141,0.0011025669379976582
217,1456704110386147,0.0009468923337572962,0.0014580748024622422,0.000909452384923468
218,1456704110409164,0.0009267065140975744,0.0011316153489532787,0.0007620844685368596
219,1456704110433160,0.0009290089061287465,0.0008829290678112844,0.0006457825686173998
220,1456704110447162,0.0009222616285311184,0.0007114233112643536,0.0005426832616464088
221,1456704110469445,0.0008796795050456853,0.0005990390400145186,0.00044388165315357384
222,1456704110491735,0.0007894053767752322,0.0005214909029363534,0.00035137289148303997
223,1456704110506252,0.0006582438388775642,0.00045689314928456094,0.00027248100567312607
224,1456704110529084,0.0005083929682187246,0.0003911796594237614,0.00021277452521235502
225,1456704110550972,0.0003689983039183955,0.00032024736624589815,0.00017202473091280793
226,1456704110565966,0.0002657634950019273,0.00024879815231194604,0.0001444689951526963
227,1456704110589477,0.00021250487778817924,0.00018650753049914823,0.00012217012137199557
228,1456704110611495,0.00020780521802261608,0.00014306070572314876,9.930504251599151e-05
229,1456704110626495,0.0002374984144339636,0.00012389482330964742,7.531062379757204e-05
230,1456704110649497,0.00028099248401911736,0.0001279699606535222,5.553863738014608e-05
231,1456704110671637,0.0003182504871805983,0.00014800730819571672,4.920824216903257e-05
232,1456704110686446,0.00033494675207767447,0.00017283721980876766,6.561280027433703e-05
233,1456704110710686,0.00032482255123386666,0.00019094654440019335,0.00011020643315523342
234,1456704110731446,0.0002894942527475671,0.00019399698199444053,0.0001820953468838678
235,1456704110746448,0.000236589863815465,0.00017912037328430503,0.0002737440441704202
236,1456704110769627,0.00017720404152119878,0.00014932058669825843,0.0003727264044308559
237,1456704110791598,0.00012337964789161095,0.00011209328815913319,0.00046453054210206723
238,1456704110806634,8.589247251459316e-05,7.693844316663605e-05,0.0005352209491794267
239,1456704110828848,7.242626913581341e-05,5.261326940070899e-05,0.0005733161495034662
240,1456704110851667,8.637242188872367e-05,4.493508937808503e-05,0.0005710944721936987
241,1456704110865639,0.0001266244249196206,5.5801143981031724e-05,0.0005259678692218665
242,1456704110889699,0.00018854478065631706,8.375198925833582e-05,0.0004422397912093209
243,1456704110910747,0.0002658211523360669,0.00012582884696972835,0.00033280332426232766
244,1456704110925748,0.00035247052544682995,0.00017985921168270895,0.00021973887668253413
245,1456704110948742,0.000444070933357162,0.0002459959884727717,0.00013274111282507805
246,1456704110970956,0.0005375960923949193,0.0003265955890109723,0.00010486662605630502
247,1456704110988523,0.0006299233692185735,0.00042428947728063423,0.00016597904791359802
248,1456704111009214,0.0007158165455048628,0.0005389698503104991,0.00033508731204391704
249,1456704111030987,0.0007866359480690011,0.0006649145740414131,0.0006132550855874036
250,1456704111047987,0.0008310797177078614,0.0007893061978342356,0.0009789621548837964
251,1456704111069297,0.0008387883730774852,0.0008931837188582599,0.0013879113770138584
252,1456704111091583,0.0008064934090505996,0.0009555132946699225,0.0017791190274001809
253,1456704111107602,0.0007446772741724934,0.0009602919719706366,0.002088064523078467
254,1456704111128887,0.0006811337376824469,0.000905126962012365,0.0022651969599799975
255,1456704111151689,0.0006575565461911887,0.0008079318290015832,0.002294584323469307
256,1456704111167663,0.000717383811832245,0.000707432005238835,0.0022046144230880808
257,1456704111189896,0.0008875750795109008,0.0006544875873248607,0.0020629807440012107
258,1456704111211491,0.0011619005441638767,0.0006952965700910628,0.00195365458132255
259,1456704111228191,0.001495115082747044,0.0008526857987701118,0.00194307622932163
260,1456704111249193,0.0018133618545033937,0.0011143787569726274,0.0020509611338870317
261,1456704111271406,0.0020377026611235975,0.0014345781179631602,0.0022409313427966225
262,1456704111288587,0.0021102750787346546,0.0017484456945840651,0.002435834043450195
263,1456704111309344,0.0020115870027733367,0.0019926419080461095,0.0025491052767997245
264,1456704111331415,0.0017635353086702535,0.002123409550328003,0.0025168351032377645
265,1456704111347134,0.0014208922106758533,0.0021274017156225366,0.0023184419285251024
266,1456704111369136,0.0010578046901481759,0.0020257309897448107,0.001981762605356751
267,1456704111391375,0.0007535445653793608,0.0018734771936892885,0.0015743092032819246
268,1456704111414368,0.0005777162011893374,0.0017537393063772222,0.0011844341510757312
269,1456704111429368,0.0005746254761264243,0.0017613286639559637,0.0008963577368938022
270,1456704111451369,0.0007498536573558453,0.00197263762201107,0.0007642507685591425
271,1456704111474608,0.0010649939041652483,0.0024076428053493317,0.0007931287717669739
272,1456704111489339,0.0014453572055061537,0.0030018934197441013,0.0009352009334916979
273,1456704111511551,0.001800524260188662,0.0036094967811726953,0.0011061028069908761
274,1456704111534594,0.0020516035949731132,0.0040456852364426634,0.001216587927669292
275,1456704111549364,0.002154769416274041,0.004154974021219818,0.0012068237778177678
276,1456704111571355,0.0021109234089703634,0.0038730618190180852,0.0010681145949580197
277,1456704111594546,0.001957756426392409,0.0032512414416787216,0.0008426109919567745
278,1456704111609618,0.0017498902177276589,0.0024328147120931684,0.000602370093839194
279,1456704111631514,0.0015379890761450293,0.0015973846993280864,0.0004187862167005081
280,1456704111654329,0.0013552638100803476,0.0009017952169410021,0.00033636473722707373
281,1456704111669294,0.0012137270782102145,0.0004404963823039061,0.0003603337696126341
282,1456704111691799,0.001108126795103057,0.0002336710916279709,0.0004599823433009753
283,1456704111713605,0.0010235407161780614,0.00023966047762176182,0.0005836416767993183
284,1456704111728892,0.0009427541612211514,0.00038179883640007933,0.0006784540323722964
285,1456704111751644,0.0008519100069902381,0.0005776891197287294,0.0007078892229624446
286,1456704111773615,0.00074511277057986,0.0007609924801608478,0.0006617898822645064
287,1456704111789133,0.0006276913003816064,0.0008910693824594009,0.000556888889089101
288,1456704111811642,0.000515536132535996,0.000951614871549861,0.0004289378823805736
289,1456704111833930,0.00042873834617579464,0.0009431606985520766,0.00031978210890089813
290,1456704111848645,0.0003817649262018128,0.0008749835554705879,0.00026378583920331073
291,1456704111870653,0.00037541900578685097,0.0007600713669528291,0.00027797809205824554
292,1456704111894734,0.0003951095843517159,0.000613754067451813,0.0003588701416500175
293,1456704111910735,0.0004164820940282476,0.0004541238272017091,0.0004862201109466561
294,1456704111930738,0.0004156340168251668,0.0003017212521313084,0.0006312118349666515
295,1456704111954738,0.00037892426176137776,0.00017718997046789866,0.0007651042257755731
296,1456704111970739,0.0003079398548280435,9.746948581742696e-05,0.0008651194635910473
297,1456704111991262,0.0002181288848643457,7.215322376163174e-05,0.0009165359126061383
298,1456704112014779,0.00013286103072386883,0.00010147074274548201,0.0009121638991246307
299,1456704112030779,7.611286099396356e-05,0.0001765933342441394,0.0008513633376245185
300,1456704112050788,6.625203235824715e-05,0.00028221690630459654,0.0007402108797317286
301,1456704112074782,0.0001118628468204421,0.00040068250928332783,0.000592926535220829
302,1456704112090094,0.0002096394792869832,0.0005162661328489667,0.0004331772600880717
303,1456704112111627,0.000344320718482157,0.0006181237636419762,0.0002932448009838024
304,1456704112134660,0.0004907969388803672,0.0007010230184340812,0.0002097065669306519
305,1456704112150587,0.0006183988801747413,0.0007640673472741637,0.00021594827116889933
306,1456704112170593,0.0006970395954420227,0.0008084210131314843,0.0003335196197840357
307,1456704112193918,0.0007044684184679275,0.0008351783893319919,0.0005649831212276382
308,1456704112210925,0.0006333259841641081,0.0008441125161117243,0.0008902533836951342
309,1456704112231949,0.0004959819510444388,0.0008335417988483469,0.0012673372488647382
310,1456704112253969,0.0003248532969336622,0.0008013471932206479,0.0016378658276999818
311,1456704112270962,0.00016682186528433376,0.000747172824271008,0.0019378166194018525
312,1456704112292438,7.242005882090095e-05,0.0006755839256009725,0.002113210712074104
313,1456704112313953,8.240413291949104e-05,0.0005991289126177215,0.002138252151134767
314,1456704112331125,0.00021515451302166745,0.0005392767534111084,0.0020297606480066885
315,1456704112351147,0.0004582960975137746,0.0005231707714680782,0.0018493346939872772
316,1456704112376227,0.0007676475153149254,0.000575856227948457,0.0016869693318864445
317,1456704112391164,0.0010756903348854703,0.0007105154316936275,0.0016283035701889796
318,1456704112411619,0.0013091358736150925,0.0009213304029815279,0.0017184717884391367
319,1456704112434650,0.0014109125973788227,0.001182998394226293,0.0019404729736959383
320,1456704112450647,0.0013583966215670147,0.0014575571132117036,0.0022195776807584027
321,1456704112471546,0.0011702889669048984,0.0017052075652907888,0.002451464942775699
322,1456704112494483,0.0008997559540855054,0.0018942085241594152,0.0025405310365653037
323,1456704112510649,0.0006176254330927959,0.0020068448830956715,0.0024323815616388708
324,1456704112531615,0.00039238232834040314,0.0020420439607111993,0.0021295721789705013
325,1456704112554609,0.000272924119364693,0.002017177093785664,0.0016877713666133658
326,1456704112569498,0.0002779663614364108,0.001970246425496524,0.001196971766383286
327,1456704112591584,0.00039433555966900477,0.001959709834843949,0.0007562986497151253
328,1456704112613612,0.0005846432502940088,0.0020553079825818173,0.0004501554629526474
329,1456704112629613,0.0008019658612615701,0.002314057571314513,0.00033002561013355404
330,1456704112651628,0.0010058235500652677,0.002744871869264691,0.0004038676415714284
331,1456704112673615,0.0011726202027728823,0.003279476832732809,0.000634757343998998
332,1456704112690363,0.0012967321617330494,0.0037737275428818807,0.0009500409536191
333,1456704112711149,0.0013837583489353842,0.004051079364250121,0.001259860986661123
334,1456704112734165,0.0014409603502258297,0.003973462434077302,0.0014803985476031722
335,1456704112749868,0.001470090996201631,0.0035037156487815304,0.0015549552634793152
336,1456704112770867,0.0014661678475851858,0.002725502799224345,0.0014665675827290187
337,1456704112794594,0.001422974811741392,0.001810862246287265,0.0012389301397782028
338,1456704112809600,0.0013417926943048767,0.0009546048851828567,0.0009264536808378473
339,1456704112832600,0.0012365743510469606,0.00030901827098161946,0.0005974610122357765
340,1456704112854601,0.001130766354735864,-5.4386216213119786e-05,0.0003158429269297109
341,1456704112869603,0.001047522790450036,-0.00014771823721762683,0.00012613295904930042
342,1456704112893560,0.0009998954668478772,-4.2254005185177685e-05,4.548506285366141e-05
343,1456704112913953,0.0009867702814577045,0.0001676842039928668,6.387931869952454e-05
344,1456704112937097,0.0009958722452796504,0.00039762747129261296,0.00015151971370508166
345,1456704112952837,0.0010108104475415028,0.0005930086136392757,0.0002704429124777512
346,1456704112974141,0.0010172485009701541,0.0007333738309409923,0.00038636660427116644
347,1456704112995883,0.0010049638903495337,0.000823855483070889,0.0004770698960883579
348,1456704113012884,0.0009665943686627332,0.0008808481669671729,0.0005350593325340841
349,1456704113034221,0.0008966532485435484,0.0009191541526749951,0.0005644843211320262
350,1456704113057222,0.0007933429867288479,0.0009449956632959586,0.0005744829224462697
351,1456704113072887,0.0006621481923467528,0.0009553929952502646,0.0005724406760366775
352,1456704113094388,0.0005178416133940552,0.000941815619584236,0.0005602844483838782
353,1456704113116596,0.00038241689260591773,0.0008953976108107883,0.0005350149829134779
354,1456704113132596,0.00027926529292823544,0.0008115480218259493,0.0004923692763682208
355,1456704113153603,0.0002261392454380147,0.0006927260617301837,0.00043119436853975306
356,1456704113177668,0.00022995183458227918,0.0005492026654648211,0.00035631353636088
357,1456704113193109,0.00028552336509536733,0.00039830417644972195,0.0002787743057182782
358,1456704113214118,0.00037855156397878753,0.00026249923868661563,0.0002135461996280793
359,1456704113237422,0.0004910640260354307,0.00016616751939834472,0.00017566068865159363
360,1456704113253120,0.0006065872500564364,0.00013088587295617527,0.0001764023997105
361,1456704113274128,0.0007129574618468491,0.00016989182112508435,0.00022116816206831143
362,1456704113296361,0.0008023250665758822,0.00028343185446625145,0.00030969079640122925
363,1456704113313363,0.0008691300200412863,0.0004570524002031072,0.0004378369291947758
364,1456704113336545,0.0009074293045057577,0.0006640219397036815,0.0005992194549702257
365,1456704113357364,0.0009094518665670281,0.0008713113894026201,0.0007852633525294713
366,1456704113373365,0.0008672705977195539,0.0010470274157134045,0.0009838618634636618
367,1456704113394373,0.0007779782999689771,0.0011669234293089368,0.0011783017873404301
368,1456704113416379,0.0006500168440918303,0.0012185652349653224,0.0013487608489680535
369,1456704113432380,0.0005065132878069654,0.001202955916342803,0.001477896764859883
370,1456704113453386,0.0003825095240721568,0.0011340824037990346,0.0015598739806663865
371,1456704113477525,0.0003161720182944108,0.0010367036456187615,0.0016092284413623088
372,1456704113493492,0.0003369989352100581,0.0009420543876366589,0.0016635587984304252
373,1456704113514589,0.0004552207035637146,0.0008807814299696132,0.0017741443670408568
374,1456704113537616,0.0006563634633442932,0.0008734127566877498,0.001983239286919685
375,1456704113552590,0.0009037748361246444,0.0009213220184380958,0.002295793793899873
376,1456704113573879,0.0011493030857214655,0.001003927832879782,0.0026616279067562323
377,1456704113597411,0.0013482869409105064,0.0010873961059516663,0.0029831782629270312
378,1456704113612412,0.0014718432732255178,0.001143959287957832,0.003150394739055251
379,1456704113634577,0.001510495309134418,0.0011716866817597469,0.0030865412149776407
380,1456704113657613,0.001468978995285037,0.001200065528746014,0.00278067989362957
381,1456704113673535,0.0013582264174248104,0.001273722203894088,0.0022906072219490282
382,1456704113694212,0.0011913859666636691,0.0014221435138215552,0.0017172051777787016
383,1456704113717609,0.0009855953160509473,0.001635425297231337,0.0011656618679613251
384,1456704113731493,0.0007655607788505783,0.0018642663023641056,0.0007130282762073483
385,1456704113753500,0.0005641510893090125,0.002046790014279082,0.00039484568895365254
386,1456704113777608,0.00041843579824403884,0.0021460601261325406,0.00021173013545503858
387,1456704113793663,0.0003624837663237576,0.002173674405899572,0.00014719265191432974
388,1456704113815793,0.00041891890203682946,0.0021830271014935143,0.0001850951256624039
389,1456704113836801,0.000591210598009348,0.002235425755098112,0.0003185751157961067
390,1456704113852795,0.0008591788978969784,0.002359763523542925,0.000548375344111947
391,1456704113875796,0.001180360148190236,0.0025302521759943226,0.0008736062414993191
392,1456704113897040,0.0014981740529756951,0.002675298593446459,0.001280398198945048
393,1456704113912810,0.0017544504844070354,0.0027121705261333494,0.0017339787997151864
394,1456704113935811,0.0019016133074329855,0.002587704445434307,0.002178227168455398
395,1456704113956855,0.001911355499611525,0.002302900460932913,0.002544108517372938
396,1456704113972813,0.0017803057030744537,0.001910178432897109,0.00276527701205546
397,1456704113995822,0.0015338757652134819,0.0014889799723383512,0.002796744330491529
398,1456704114017124,0.0012258008349764265,0.0011161807541279925,0.0026313287411533623
399,1456704114040829,0.0009284211813338418,0.000845903193557434,0.002308238528596748
400,1456704114055867,0.0007128133416631207,0.0007032164502965484,0.0019087694759722105
401,1456704114076868,0.0006257597620071013,0.000687302153446529,0.0015369452781541896
402,1456704114093346,0.0006746174188840454,0.0007774729680341992,0.0012887942529803294
403,1456704114116515,0.0008274776586929812,0.0009387501085065481,0.001220876931538106
404,1456704114137509,0.001027501700302332,0.001127619657814809,0.0013316655383438113
405,1456704114159504,0.001213181692719152,0.001299330226335097,0.0015645118705266785
406,1456704114176507,0.001335088856741801,0.0014160857487937398,0.0018303988949985915
407,1456704114197573,0.001364275999819762,0.0014538198336605547,0.0020395856626143644
408,1456704114219574,0.0012934533063520787,0.0014056153095090764,0.002129037966124267
409,1456704114235575,0.0011346720455128192,0.001281288534818378,0.0020768236270189175
410,1456704114256825,0.0009157162950603307,0.0011037304343454251,0.001901349151651038
411,1456704114278583,0.0006747182629556198,0.000902976113295255,0.0016486941832937665
412,1456704114296084,0.00045190916881697105,0.0007091243830788704,0.0013740125639702884
413,1456704114316841,0.0002794418062784635,0.0005455370270310282,0.0011234715490254757
414,1456704114338793,0.00017280009703827737,0.0004240760456814831,0.000922185506287959
415,1456704114355593,0.00012787137929206731,0.00034388732659790716,0.000771297570003189
416,1456704114376846,0.0001254457816851819,0.0002941009237310158,0.0006541410884319403
417,1456704114398636,0.00014119118569556752,0.0002593333491326101,0.0005483082823032882
418,1456704114415605,0.00015646125463409196,0.0002259389879909634,0.00043866577311776385
419,1456704114435809,0.0001651997698511764,0.00018695278342772698,0.00032645300807700796
420,1456704114459609,0.0001745335414174904,0.00014433964444466801,0.0002313235165687301
421,1456704114475609,0.00019980514472455146,0.0001080877471556059,0.00018578143051838598
422,1456704114496621,0.00025699186654839747,9.257508179305509e-05,0.00022404012087731475
423,1456704114519628,0.0003558105450646089,0.00011135250679909222,0.00036906948819021067
424,1456704114536629,0.000495576930913733,0.00017191859707200405,0.0006219534710413957
425,1456704114557631,0.0006641447168591139,0.00027211843250727783,0.0009567318247631504
426,1456704114578918,0.0008392908570203946,0.00039941055896017063,0.0013223949109018695
427,1456704114595143,0.0009922235570273012,0.0005334659766739586,0.0016522985889018246
428,1456704114617652,0.0010934772807657026,0.0006515565041744407,0.0018798164317239065
429,1456704114640653,0.0011208105428246304,0.0007351104966783164,0.001956953854602994
430,1456704114654654,0.00106674741621343,0.0007749484518438147,0.0018701142190686298
431,1456704114677655,0.0009420646690012109,0.0007727700654941286,0.0016460347621167777
432,1456704114698953,0.0007729090541592038,0.0007381768970747106,0.0013435297803237396
433,1456704114714676,0.0005929559409621148,0.0006833960075807578,0.001033282583759471
434,1456704114737676,0.00043505476075726153,0.0006196798305946755,0.0007746251240435102
435,1456704114759678,0.0003262578917952064,0.0005578695676077988,0.0005997605539785041
436,1456704114774679,0.00028644618634910947,0.000511446551795137,0.0005109237337373072
437,1456704114797702,0.0003276390033498712,0.0004972790742803126,0.0004887350383139521
438,1456704114818989,0.00045151084377576206,0.0005305469629902684,0.0005056485413156375
439,1456704114834702,0.0006457154079339614,0.0006153862484756525,0.0005382771310644469
440,1456704114857703,0.0008820017275133739,0.000737421370777179,0.0005746691329880565
441,1456704114878711,0.0011188791624429,0.0008645948846619764,0.0006156626541643629
442,1456704114895215,0.001309529868545317,0.0009582351355554037,0.0006721337360321596
443,1456704114917723,0.0014134040127133495,0.0009902049181848111,0.0007606329167952761
444,1456704114938726,0.0014082515802652045,0.00095804647387204,0.0008982291786496623
445,1456704114954726,0.0012983974663415422,0.0008904775953513373,0.0010959688103434533
446,1456704114978727,0.001115193565356394,0.0008401261653922311,0.0013516063631279797
447,1456704114998958,0.0009075452979031938,0.0008663394501595282,0.001644577741471927
448,1456704115014751,0.0007246493396993707,0.0010146788933280673,0.0019363334281812807
449,1456704115037752,0.0005979863823750081,0.00129979482131539,0.0021770735436385342
450,1456704115058861,0.0005313356270127755,0.0016964673051248448,0.0023177002736046756
451,1456704115075014,0.0005037098333948709,0.002141773742149501,0.002323788024694732
452,1456704115097776,0.0004830788557125725,0.002549498715235608,0.0021864839124309666
453,1456704115119063,0.0004434845432338415,0.0028350095295161856,0.0019256007986219559
454,1456704115134781,0.00037740622631506727,0.0029449106180698776,0.0015841858243700478
455,1456704115157781,0.00029855938589163744,0.0028820570069700547,0.001218660143186065
456,1456704115179081,0.00023543903235994542,0.00271482088517076,0.0008896286040084276
457,1456704115195793,0.00021991572229336737,0.0025618414572297836,0.0006548642245246746
458,1456704115217801,0.0002761231473023875,0.002550942738191723,0.0005618847040078927
459,1456704115239097,0.0004132420391501319,0.0027627283081711794,0.000637579993392921
460,1456704115254803,0.0006234816958096103,0.003181780486186661,0.000876939335369851
461,1456704115277804,0.0008846420446647002,0.0036835192537328794,0.0012376962160408262
462,1456704115299109,0.0011650302072939184,0.004073574886072131,0.0016474243265123293
463,1456704115314823,0.0014279661943506887,0.004168700763617457,0.002023220669016077
464,1456704115337827,0.0016353559835789841,0.003879957741126686,0.002296174416979889
465,1456704115358827,0.0017535080377136993,0.0032530642777246804,0.002429598774678597
466,1456704115374845,0.001763976097080068,0.0024449342487026585,0.002423822672432287
467,1456704115397840,0.0016754842012363708,0.0016526996076400664,0.002307965242036222
468,1456704115419109,0.0015270504689269338,0.001035857611498938,0.0021252784902463647
469,1456704115441849,0.0013759115752620813,0.0006695282587032719,0.0019201268649519435
470,1456704115457844,0.0012746405830151516,0.0005431175714144578,0.0017312965056459004
471,1456704115479012,0.0012494733417378273,0.0005922087688576091,0.0015904108814021403
472,1456704115502156,0.0012907245128805985,0.000738472630981013,0.001520094206375445
473,1456704115518140,0.0013594113431792437,0.0009170175892549332,0.0015280582252447164
474,1456704115539442,0.0014064306733876243,0.0010850992825176301,0.0015997082372234289
475,1456704115563142,0.0013946093644577585,0.0012185344634770994,0.001696883353269414
476,1456704115578143,0.0013127686569150562,0.0013054820208524512,0.0017680931902807576
477,1456704115599161,0.0011763388227617347,0.001342988938328181,0.001767495220557232
478,1456704115622162,0.0010172987489368694,0.0013360558671320019,0.0016731962326313253
479,1456704115638164,0.0008706593066813541,0.0012963900823694805,0.001495429079099517
480,1456704115662163,0.0007632591027426372,0.0012387565822222003,0.0012707064840349817
481,1456704115682184,0.0007071588606424641,0.001175146454641828,0.0010450868539225182
482,1456704115706196,0.0006979998460153894,0.0011092477993345589,0.0008547601969839949
483,1456704115721191,0.0007179695305660961,0.001034635132935198,0.0007131916282586524
484,1456704115742238,0.0007421903815743278,0.0009387061473725678,0.0006104694137612114
485,1456704115758199,0.0007466918056324176,0.0008111020802733316,0.0005239741718296977
486,1456704115781230,0.0007159587735385042,0.0006523525441765231,0.0004336740274822336
487,1456704115802413,0.0006478770457247068,0.000478049225050232,0.0003337455838726556
488,1456704115818251,0.0005539699922331626,0.0003162397387237998,0.00023547321026750858
489,1456704115841256,0.00045429006482880274,0.00019921285052294243,0.0001616800472096081
490,1456704115862256,0.00036906836918626073,0.00015331615831694492,0.00013658887304671168
491,1456704115878465,0.00031118743571024283,0.00019080917462423882,0.0001756293287702261
492,1456704115900462,0.0002829633789899865,0.00030632177809402565,0.00027852528932474185
493,1456704115922445,0.00027801030799367297,0.0004784806087098744,0.00042748756884108415
494,1456704115938347,0.000286081303418936,0.0006757109560589786,0.0005908711711728376
495,1456704115961444,0.00029764360549073545,0.0008642822835881801,0.0007312146590420411
496,1456704115982397,0.0003061372704556686,0.0010161210992168461,0.0008154232903179978
497,1456704115997456,0.00030813823043821626,0.0011139362188697785,0.0008242243809223797
498,1456704116021462,0.00030292050090996003,0.001152218815283492,0.0007579617687131301
499,1456704116041482,0.00029233926631773134,0.0011345421240107475,0.0006365019949492077
500,1456704116057464,0.0002807210704435189,0.0010692402058331634,0.0004928033477095893
501,1456704116080466,0.00027417532208852586,0.000965885499482931,0.00036223570942553544
502,1456704116101518,0.00027949095651326244,0.0008339554181348486,0.0002717056770988069
503,1456704116117478,0.00030329377395736857,0.0006836010546476769,0.00023265378462350246
504,1456704116140479,0.0003517276582326801,0.0005273835862714241,0.00024002987409150388
505,1456704116161516,0.00043012367466876994,0.00038154037727976205,0.00027678313110456564
506,1456704116177481,0.0005417427760363625,0.0002657470406844556,0.0003216215269048726
507,1456704116200501,0.0006851145955055937,0.00020119447098853458,0.0003572442163066364
508,1456704116221507,0.000850638817100631,0.00020759266768184345,0.00037656002420010726
509,1456704116237503,0.0010182780911743398,0.0002999007578691423,0.00038503349714816087
510,1456704116260504,0.001158460309525629,0.00048505542302983335,0.000398083467764765
511,1456704116282060,0.0012374598098527309,0.0007584513803430764,0.0004337557259532269
512,1456704116297561,0.0012269808213088134,0.001100459709030493,0.0005029490281961913
513,1456704116320567,0.0011157270322719405,0.0014747628042961376,0.0006014235581944558
514,1456704116341831,0.0009185821918062875,0.001831193818451637,0.0007078983921021492
515,1456704116357569,0.0006779774456050636,0.0021148934892549986,0.0007900129927752676
516,1456704116381570,0.0004542541552651358,0.002281367984893392,0.000816242780648466
517,1456704116402519,0.00030730067970984515,0.0023143694480257373,0.0007692179523245752
518,1456704116418298,0.000276914745504475,0.0022406546114925223,0.0006552993125709366
519,1456704116440565,0.0003705356668824906,0.002133199636842907,0.0005065054511872825
520,1456704116464299,0.0005636298042178491,0.002094798638084243,0.0003734556862661772
521,1456704116478444,0.0008120388594282557,0.002220361962153287,0.00031124178237084516
522,1456704116499734,0.001069832765021214,0.0025488469385364517,0.0003629468851173662
523,1456704116521776,0.0013037028024764738,0.003028290148375376,0.0005464881704874776
524,1456704116537959,0.0014974171983738423,0.0035187447140699714,0.0008488693404712901
525,1456704116559738,0.0016458873236052942,0.0038411522856023595,0.00122875389956497
526,1456704116581776,0.0017444092729297263,0.003852529833233441,0.0016256134370482528
527,1456704116598272,0.0017817151071553398,0.003509048128993367,0.0019728986923700778
528,1456704116619780,0.0017436530745316274,0.002884385131287721,0.0022131301952443743
529,1456704116642781,0.0016268684169959001,0.0021372863707339513,0.0023127602463654316
530,1456704116663782,0.001452528963386275,0.001449383037105754,0.002273105520116029
531,1456704116679783,0.001267407320464791,0.0009643576830891873,0.0021319574529251603
532,1456704116702814,0.001128022018977305,0.0007509083349442542,0.001951903249303277
533,1456704116724005,0.001076300365864657,0.0007958903903907475,0.001797570524381239
534,1456704116740045,0.0011208658963483041,0.001022095350930839,0.0017114960111408737
535,1456704116762814,0.0012331055511453422,0.001320554068021133,0.001700381044668891
536,1456704116784238,0.001358108068259807,0.001586363806089667,0.0017373216847081303
537,1456704116799569,0.001434509172817231,0.0017470578793025349,0.0017763440933059997
538,1456704116822572,0.0014155437379127212,0.0017751281380217845,0.0017706833782056345
539,1456704116843580,0.0012842215563918392,0.0016829851600254386,0.001687515096871826
540,1456704116859576,0.0010576933067164217,0.001506301539796172,0.001515766230136368
541,1456704116883367,0.0007797444208171539,0.001285382986005076,0.00126694790645082
542,1456704116904013,0.0005048672596420555,0.001052384581730638,0.000970784743601443
543,1456704116919801,0.0002803708292829399,0.0008272635300954881,0.0006678387566137655
544,1456704116950803,0.00013318539079933096,0.0006206574436209239,0.0004007847352802405
545,1456704116964050,6.558686665606555e-05,0.00043938066527748676,0.00020551586602418468
546,1456704116979806,6.0135259782613084e-05,0.00029040741428247927,0.00010354903082914732
547,1456704117004609,9.036241208875663e-05,0.00018138817928293224,9.766091849163303e-05
548,1456704117023616,0.00013188807099747985,0.00011838334607391549,0.00017223138844476242
549,1456704117039611,0.00016952677018904847,0.00010298321133983941,0.0002983091721928616
550,1456704117062613,0.0001987747675792452,0.00013077709846011416,0.00044179070780426974
551,1456704117084193,0.0002229249697904239,0.00019194339563993507,0.0005720569977609558
552,1456704117099927,0.00024846343836207595,0.00027354431475854694,0.0006683123800783543
553,1456704117122928,0.00028113412758498256,0.0003624458743062503,0.0007218620699753871
554,1456704117144213,0.0003237161040666039,0.0004477591478081005,0.0007343191408971008
555,1456704117159932,0.0003751377951793983,0.0005221673482153432,0.0007133534474127878
556,1456704117182931,0.00043015973001808385,0.0005820729575547933,0.0006682377425818356
557,1456704117203454,0.00047963933611816056,0.0006268357589796778,0.000606929809380013
558,1456704117227449,0.0005121124356838881,0.0006574937190232809,0.0005352714075601314
559,1456704117242450,0.0005169804970195004,0.0006754099237908304,0.00045781734486759955
560,1456704117263452,0.0004883452700744707,0.0006812577964558696,0.00037923308973787575
561,1456704117280455,0.00042765530418093715,0.0006745906309884815,0.0003051315502128817
562,1456704117303403,0.00034362138507480853,0.0006540239834312025,0.00024164870409122626
563,1456704117324404,0.0002493529481984063,0.0006179369599025512,0.00019396170616477675
564,1456704117340381,0.00015846845712381156,0.0005655723643041588,0.00016487072944332685
565,1456704117370416,8.254360036356871e-05,0.00049829714253999,0.0001546928989071227
566,1456704117384366,3.101514831580191e-05,0.0004205111531357299,0.00016276795623822784
567,1456704117399455,1.2615980279076724e-05,0.0003395691992216236,0.0001895418168663847
568,1456704117422489,3.6213573926102634e-05,0.00026442176973936706,0.0002375220515192903
569,1456704117443471,0.00010924411921118555,0.00020338133700911786,0.0003099061268171143
570,1456704117459466,0.0002334972569485076,0.00016210050708517695,0.00040708112097112765
571,1456704117483466,0.00040011586959105236,0.0001430864460093797,0.0005227028517506364
572,1456704117507692,0.0005871612891054212,0.00014749890308518788,0.0006418681454618242
573,1456704117519694,0.0007625775934188368,0.00017862843837117932,0.0007434131170299869
574,1456704117542694,0.0008926111879326038,0.00024511424527650353,0.0008064746456587156
575,1456704117563696,0.0009524210065020758,0.00036161080415797654,0.000818861733406763
576,1456704117579698,0.0009341312807985865,0.0005454671057900806,0.0007830463569746544
577,1456704117602328,0.0008487700253326292,0.0008094746228380665,0.0007160633173336513
578,1456704117625329,0.0007213637526459418,0.0011523279590893536,0.0006423785642006945
579,1456704117647330,0.0005814947409655507,0.0015500269013265574,0.0005826035995461812
580,1456704117662368,0.0004537781001662302,0.001952869202507739,0.0005438362280213521
581,1456704117686316,0.0003528485641302794,0.0022929100535079355,0.0005173834705462969
582,1456704117700317,0.00028499272157018346,0.00250409192193016,0.0004859888545646609
583,1456704117722561,0.00025467570278018685,0.002551134149409305,0.00043732143689402964
584,1456704117745563,0.00027114986328028356,0.0024560310697859717,0.00037673877765771936
585,1456704117759563,0.0003498408541046472,0.002306984131007613,0.00033233919102669405
586,1456704117782565,0.0005058995663944928,0.002237651493143557,0.0003486903536557579
587,1456704117805952,0.000742318563077076,0.0023761727009504892,0.0004704983169953201
588,1456704117819953,0.001039555229002446,0.0027807628536472375,0.0007220263057025074
589,1456704117842956,0.0013542805643440446,0.003393138804260094,0.0010907795534322569
590,1456704117865956,0.0016304517251244943,0.004040505773120239,0.001523481039041514
591,1456704117879957,0.0018188403411903084,0.004495172215560576,0.001938259716676916
592,1456704117903075,0.00189619399696883,0.004567857763285117,0.002250499676702843
593,1456704117926076,0.0018756600178678885,0.0041888068499888525,0.0024032193521555177
594,1456704117947078,0.0018045865146060357,0.0034365421656404748,0.002388904840909809
595,1456704117963079,0.0017501995181012952,0.0025031746697104433,0.002251465454114782
596,1456704117986103,0.0017766681640864269,0.0016172581830448888,0.0020658667128576596
597,1456704118007393,0.001920591991075876,0.0009616887817338548,0.001905525938117377
598,1456704118023399,0.002174882034905475,0.0006199959565025073,0.0018150924834985157
599,1456704118046339,0.0024888803252403114,0.0005665075871667405,0.00180184465914282
600,1456704118066348,0.0027850399674483406,0.0006957949091784721,0.0018457629968917006
601,1456704118083394,0.0029849745710464858,0.0008734997825592212,0.0019175789551909924
602,1456704118106327,0.0030343577863186527,0.0009870585679060114,0.001993117299042461
603,1456704118127395,0.002917223718751511,0.0009792702743069957,0.0020583998843021947
604,1456704118143102,0.002655158425236423,0.0008568738888069414,0.002106507619272045
605,1456704118166103,0.002294389362137124,0.0006763325146970547,0.0021306420676060474
606,1456704118187357,0.001889465252967904,0.0005158143899106556,0.0021184759952256153
607,1456704118202506,0.0014914837211996617,0.0004443356820749787,0.0020517041246159817
608,1456704118225507,0.0011427372316228624,0.0004977773990191188,0.0019121195282743397
609,1456704118246509,0.0008744597200569877,0.0006688378532623657,0.001692144937468314
610,1456704118262509,0.0007044856793438819,0.0009138832383610248,0.0014048408264574939
611,1456704118286304,0.0006354868622280353,0.001173755459216257,0.0010875815140043456
612,1456704118306967,0.0006572600082882122,0.0013996436412957148,0.0007958026403635384
613,1456704118322739,0.000755140929826434,0.001572532812127066,0.0005879048676124138
614,1456704118344740,0.0009217254509375662,0.0017076335265016744,0.0005072349938232258
615,1456704118367048,0.0011646299573285102,0.0018423382235307597,0.0005691194811171457
616,1456704118382742,0.0015031666614917021,0.0020137983576572886,0.0007585881513480366
617,1456704118411883,0.0019524633714795483,0.002236381193918248,0.0010388082417846555
618,1456704118426877,0.0025015892314973055,0.002488650033577269,0.0013648167003513219
619,1456704118442877,0.003097538860653554,0.002715253945153292,0.0016954253504547594
620,1456704118464879,0.003645630856782329,0.002843303464987215,0.001998987965779653
621,1456704118486885,0.004029237286968776,0.002807409456239359,0.002253401846111896
622,1456704118502891,0.004142460562834916,0.002574309653005189,0.002443559828808535
623,1456704118524892,0.003924019190489247,0.0021580480520519293,0.002559005536849591
624,1456704118547894,0.003381097016041637,0.0016200368634683815,0.002592433679894554
625,1456704118562894,0.0025959793500860417,0.0010539436300731186,0.002538606416179343
626,1456704118586091,0.0017132691941525206,0.0005611505499271169,0.0023941336242750432
627,1456704118608079,0.0009104092788048477,0.00022590243042202606,0.0021596535474902616
628,1456704118623067,0.00035843695000680647,9.844786702179263e-05,0.001844945162289789
629,1456704118645095,0.0001821525615701675,0.0001901062426600359,0.0014745346512640858
630,1456704118667874,0.000428896705171481,0.0004789332084276626,0.001089315338272755
631,1456704118682875,0.0010537928496507517,0.0009211949020863741,0.0007411326016210914
632,1456704118704669,0.001926845064907857,0.0014632088786739115,0.00048141947023327405
633,1456704118727671,0.002862603467419625,0.0020497719091819816,0.0003483703424353194
634,1456704118742672,0.0036660896046926093,0.002628291108217606,0.00035736371338060646
635,1456704118764674,0.004182184133821847,0.003150265658657415,0.0004972551616686008
636,1456704118787962,0.004333654784957227,0.003572215362990048,0.0007330843807655007
637,1456704118803445,0.004136454673840778,0.0038566701205384906,0.0010144404751744052
638,1456704118824277,0.003687639008548347,0.003972968120865085,0.0012875561992033654
639,1456704118847278,0.003129222639473369,0.0038989013564459194,0.0015080347848826358
640,1456704118862442,0.0025997239721120852,0.003625419560542908,0.001650616910909178
641,1456704118892290,0.0021914566617840417,0.00316462060778122,0.0017130655304955953
642,1456704118907797,0.001930820253863887,0.0025573298966340796,0.0017130660095446087
643,1456704118922798,0.0017884202605236042,0.0018750656865587562,0.0016794856130223188
644,1456704118944800,0.0017107208976773684,0.0012135907539312187,0.0016413467100727342
645,1456704118968801,0.0016547237803368137,0.0006785488293673123,0.0016183595274695884
646,1456704118982800,0.0016080844060536936,0.0003653635930215056,0.001615735288160354
647,1456704119004866,0.0015874635664822707,0.0003367401704329919,0.0016243034742123173
648,1456704119033837,0.001620831240475715,0.0006031818644365457,0.0016255579916416634
649,1456704119049034,0.001727381684453087,0.0011135057942302977,0.001599873589576744
650,1456704119065076,0.001907249601382171,0.0017609721341816373,0.0015345257626907932
651,1456704119088286,0.0021440647302104067,0.002405762325279465,0.0014276421946837663
652,1456704119109552,0.002413971590276613,0.002908031471275778,0.001286404939244289
653,1456704119124552,0.002692104304941095,0.0031610956825261468,0.0011217215464095335
654,1456704119148555,0.0029522768384258125,0.0031144834443874794,0.000943774315851395
655,1456704119170554,0.003162569029090641,0.0027814719573050137,0.0007613384549942409
656,1456704119184554,0.0032830077518994985,0.002231965470070954,0.0005845006144953057
657,1456704119208256,0.003270254287708954,0.0015754177261544729,0.00042879804492538886
658,1456704119228990,0.003090252852306111,0.0009388262668983521,0.0003192836215890088
659,1456704119245251,0.002735424325263751,0.00044336976761895027,0.0002931059952448852
660,1456704119269261,0.002239383004249363,0.00018234498654817237,0.0003977130431812237
661,1456704119289212,0.0016808813882950662,0.00020332456735444287,0.0006811310736510325
662,1456704119304223,0.001171525324737988,0.0004978162410510333,0.0011737948448849816
663,1456704119328334,0.0008281997020069232,0.001001047625165987,0.0018672724649060257
664,1456704119349227,0.0007377573692413828,0.0016028871778908593,0.0026996466025571066
665,1456704119365228,0.0009252898982673248,0.0021691137320637996,0.0035566037496968217
666,1456704119388171,0.0013376477581504465,0.0025704989557176028,0.004291506826200347
667,1456704119408883,0.0018510692465883631,0.002714848136073667,0.004760101582677238
668,1456704119424668,0.0023049783305094463,0.002574143282085983,0.004859724919122789
669,1456704119447670,0.0025533478118875646,0.002197152172612629,0.00456098199700876
670,1456704119468677,0.002514847590016755,0.0017002985848632462,0.003921804038104543
671,1456704119484672,0.002200379739328341,0.0012369442610392137,0.0030784380941859734
672,1456704119507407,0.0017053352168171845,0.0009540797948785268,0.002214137740339897
673,1456704119530409,0.001170315455009176,0.0009506939194273169,0.001513204830424283
674,1456704119544410,0.00072874270942877,0.0012510520473399572,0.0011139297907697017
675,1456704119567410,0.00046402830038304077,0.0017998037998046986,0.0010759151786533731
676,1456704119591342,0.0003913130406768158,0.0024780685648503617,0.0013726687601542003
677,1456704119605075,0.00046582691081205677,0.003134347026306443,0.001910296593667162
678,1456704119628079,0.0006097111001924361,0.003622189039958853,0.00256277204197807
679,1456704119650862,0.0007446845761482604,0.003836127921027386,0.0032089375880886752
680,1456704119664862,0.0008180851449001547,0.003737385286191321,0.0037579655630024167
681,1456704119688153,0.0008138708940134478,0.0033622450656719963,0.004156829023711186
682,1456704119711163,0.0007476100629083956,0.0028096156580208692,0.004382017395809751
683,1456704119726164,0.0006519083692268283,0.002209862712966781,0.004424524029700388
684,1456704119748166,0.0005614688997994149,0.0016837350286429038,0.004279218366195947
685,1456704119771167,0.0005040462149686237,0.001305780233130896,0.003946161998865923
686,1456704119792251,0.0004982369863651235,0.0010867208705324213,0.003443534500433216
687,1456704119807753,0.0005549182669087723,0.0009814808134485733,0.00282323883866181
688,1456704119830755,0.0006777270133698306,0.0009175658726820562,0.0021760678870420143
689,1456704119844756,0.0008598457956392202,0.000829777007559617,0.001617214292811931
690,1456704119868756,0.0010790339108918774,0.0006866951949462697,0.0012538097347905175
691,1456704119890762,0.001296982494263795,0.0005007697499712735,0.0011478703175553109
692,1456704119904775,0.0014682454202145472,0.00032183718522011887,0.00129286505548364
693,1456704119927776,0.0015576398598970956,0.0002190651306796448,0.0016163281346985422
694,1456704119950777,0.0015577874281398822,0.0002579306671852351,0.002007607129925653
695,1456704119971779,0.0014961751797399857,0.00047863572828631335,0.002357182408474954
696,1456704119995986,0.0014260605707726195,0.0008817079826076077,0.0025895403170414786
697,1456704120011252,0.0014049838723022342,0.0014250882326325921,0.002677075753127979
698,1456704120032244,0.0014722150667858245,0.0020337846572639523,0.0026335048852965536
699,1456704120048002,0.0016363306158697387,0.0026187454156873565,0.002494951847688521
700,1456704120071249,0.001876368884850604,0.0030983219044336376,0.002300384737686734
701,1456704120092316,0.0021514874888495434,0.0034153875978522557,0.0020798423095726307
702,1456704120108166,0.0024117252865772814,0.0035455369240175575,0.0018521435448491084
703,1456704120130938,0.002606447605454559,0.0034953267837247565,0.0016281401533122474
704,1456704120151981,0.0026916205531241954,0.0032928894426708833,0.0014142068302417468
705,1456704120167940,0.002637589765057759,0.0029753814007642014,0.001213331528247616
706,1456704120191380,0.0024359924676339365,0.002577904735848945,0.0010247228328960272
707,1456704120212400,0.0021017457039739906,0.0021268839866887923,0.0008441638199837335
708,1456704120227399,0.0016671598855017677,0.0016385201526559708,0.0006660439467071535
709,1456704120249243,0.0011699487079907958,0.0011211199340086801,0.00048612020077443515
710,1456704120272355,0.0006413990595509471,0.0005793368868854992,0.00030336340372580064
711,1456704120287392,0.0001012524800456825,1.8488127987035456e-05,0.0001198100577721421
