,timestamp,x,y,z
0,1456704106043305,1.7081630060406542e-05,0.0004803553416891799,0.00019643415785681654
1,1456704106066306,0.0021805199477183314,0.0017255107155303459,0.004675855540271483
2,1456704106082315,0.004111676193703994,0.0029596000416144187,0.008026646002197036
3,1456704106103318,0.005620521470198845,0.0042084188112810955,0.009546652219610855
4,1456704106127529,0.006603094093775669,0.005495806222975152,0.009186388967316267
5,1456704106142326,0.007036812853398628,0.00680099008158775,0.007509936805828837
6,1456704106163322,0.006957119696046147,0.008018509355336078,0.005422587014397138
7,1456704106187338,0.006440583520258694,0.008954869715803346,0.003802121329885706
8,1456704106218355,0.005605613760426406,0.009381331848793853,0.0031931479609933065
9,1456704106219350,0.00461827432102023,0.009134278356605841,0.0036722947240908454
10,1456704106240353,0.003680370007221728,0.008221092188091595,0.004905610202647275
11,1456704106269352,0.002990048632237264,0.006870456909012716,0.006343585931054553
12,1456704106279367,0.002687289925321707,0.0054860634735525386,0.007461198498496193
13,1456704106309583,0.0028077171977892793,0.004515489941313253,0.007953650162943858
14,1456704106336584,0.003264493287397756,0.004293662485977175,0.007826870580067953
15,1456704106360586,0.0038689130791904848,0.004930816195553637,0.007358805256880752
16,1456704106361749,0.004390825004280995,0.006285306035351652,0.006951930444738076
17,1456704106380593,0.0046472883022854634,0.008016803439722744,0.006944305759642161
18,1456704106405775,0.0045908838265952745,0.00968792918147421,0.007466612080455851
19,1456704106420773,0.00435612872963905,0.010882135592492565,0.008402810592018592
20,1456704106439826,0.004228194170000592,0.01131579161858308,0.0094537126675686
21,1456704106464769,0.00453089307656547,0.010925951978909982,0.010261028868221382
22,1456704106480644,0.005477267027188492,0.00991132843353497,0.010543386878920917
23,1456704106500856,0.007054156442853579,0.008702972866799637,0.010209544058341607
24,1456704106516857,0.008999579922660752,0.007855861700794354,0.00942442574110009
25,1456704106539859,0.010887240219753744,0.007884864441110294,0.008602411666226918
26,1456704106560859,0.012284033216619403,0.009100191365547768,0.008303950570649392
27,1456704106577386,0.012915889520477666,0.011503669720425809,0.009040209641294544
28,1456704106599894,0.012772885967941435,0.014782007627834041,0.011045980644455007
29,1456704106620117,0.012107313756133336,0.01839442677759585,0.01412528243195701
30,1456704106636894,0.011322056309724935,0.02172261751066002,0.017659934951868583
31,1456704106659896,0.010796142967243806,0.024238378566912296,0.02079131332391491
32,1456704106680626,0.010726959206261063,0.025640549937050842,0.022696012837317415
33,1456704106703263,0.011060505527854836,0.02591190989744076,0.022847649230969675
34,1456704106719975,0.011532066920111073,0.025262063487837355,0.02118700209597423
35,1456704106739977,0.011785416412211706,0.023976568250141266,0.018153657574947767
36,1456704106762979,0.011514609583991937,0.022262771854821634,0.014556432843343493
37,1456704106780501,0.010578316066734117,0.020190635190804444,0.011313915160329308
38,1456704106800294,0.00905462784007235,0.017746281466074453,0.009162631653683239
39,1456704106825008,0.007225770497602803,0.01493532025532375,0.008446985764905823
40,1456704106840009,0.005501517048581209,0.011870110073770273,0.00905884454883851
41,1456704106862011,0.004300892247003674,0.008812944681021593,0.010528429351810392
42,1456704106883839,0.003919065827914898,0.006162904327896199,0.012222017354489445
43,1456704106899831,0.004417563148553668,0.004376679684581507,0.013580516619110668
44,1456704106920793,0.005582040221391484,0.003834366545538191,0.014318828548011106
45,1456704106943829,0.006978683217235845,0.0046916829458536445,0.014503174687871285
46,1456704106959754,0.008105779656908344,0.006776010658721794,0.014465407004106968
47,1456704106982158,0.00858981854506153,0.009578028646796638,0.01459776363892782
48,1456704107003827,0.008337681126857151,0.012366176085272068,0.015134278527396013
49,1456704107019824,0.007563428514381281,0.014405661319736208,0.016017571926195944
50,1456704107041675,0.006673097593614814,0.01520361945542598,0.016898697173774808
51,1456704107064671,0.006072300255605334,0.014667281738652513,0.017272115910628223
52,1456704107080192,0.005998008743569978,0.01309901327414402,0.016709207022545823
53,1456704107102209,0.006449740635517437,0.011045032757011982,0.015099178028656091
54,1456704107123215,0.0072350875820639095,0.009088770331412107,0.012763376846899665
55,1456704107140212,0.008086100792710472,0.007684410235325822,0.010349750047782788
56,1456704107162213,0.008774809357342376,0.007075647024253336,0.008546288225472131
57,1456704107183228,0.009173813211931163,0.007287081017724265,0.007771423694005665
58,1456704107200234,0.009254723682351593,0.008152140638880867,0.008003927703677928
59,1456704107222235,0.009053183348493114,0.009358644927160884,0.008822261055472902
60,1456704107243236,0.008633680289159316,0.010519448823498196,0.009621142540473906
61,1456704107260245,0.00807138257559001,0.011276355020833545,0.009906172075634639
62,1456704107282759,0.007449608985344763,0.011417979336367196,0.009532475182531136
63,1456704107303675,0.00686166396758319,0.010962635370913288,0.008765721307688996
64,1456704107320675,0.0064085499855012955,0.010156085300421058,0.008129320749688218
65,1456704107342473,0.006191813967851829,0.009370873603594447,0.008124548994781088
66,1456704107363469,0.006302007647673379,0.008945961540798377,0.008981284526156267
67,1456704107380484,0.006799333073452909,0.009037539037461989,0.01056646916721458
68,1456704107402407,0.007685638593098815,0.009549203515535426,0.012476358503730104
69,1456704107423408,0.008878759167756057,0.010178171672933585,0.014234587860678504
70,1456704107440410,0.01020926092994172,0.010562572113594586,0.015471335900654035
71,1456704107462354,0.011454479069624973,0.01046009094076115,0.015997557275052574
72,1456704107483611,0.012406433153480933,0.00986752964882803,0.01578154591717353
73,1456704107507194,0.01294915262596125,0.009029714857332758,0.014904832652052178
74,1456704107522195,0.013111947909158848,0.008355797183534587,0.013563530637277483
75,1456704107543496,0.01307797886476175,0.008300442486749595,0.012107681309929626
76,1456704107560197,0.013149724188300986,0.00925076321854953,0.01104673825875241
77,1456704107582467,0.013681593063095873,0.01142245951225374,0.010952924682855253
78,1456704107603169,0.014987473379855608,0.01476339163240811,0.012265436160204113
79,1456704107619941,0.01723660371216336,0.018895313548279016,0.01508089994506765
80,1456704107641941,0.020361750916707572,0.023148422840599266,0.01904110756057574
81,1456704107662943,0.024009492925525355,0.026722382992001636,0.023379328606166854
82,1456704107680449,0.02756858285429062,0.028950093986484765,0.02711104682373401
83,1456704107701965,0.030301955748111467,0.02957295745428767,0.02930782591934814
84,1456704107722972,0.03155314172744814,0.028888568238440583,0.029372888454966033
85,1456704107739967,0.030938266645168855,0.027650447657736842,0.027224381659527022
86,1456704107761970,0.02844397934981908,0.026717821376087626,0.023307878726251785
87,1456704107783671,0.024417135355195907,0.026621888310432315,0.018430277607611924
88,1456704107800396,0.019475981084103842,0.027300021058095203,0.013495879307428783
89,1456704107824187,0.014371060441173426,0.02815438614626316,0.00925903078836788
90,1456704107843487,0.009815498347111736,0.028378994454513248,0.0061725461708452296
91,1456704107860190,0.006315970597931124,0.027345224331381413,0.004356503548268698
92,1456704107882507,0.004057910178531141,0.024848761152184904,0.003669862322734748
93,1456704107903697,0.002899768232762028,0.021143980615430064,0.0038356317748289466
94,1456704107934762,0.002487998676956143,0.016804216829672,0.004556167025233157
95,1456704107942471,0.002438377141455577,0.012499539784921541,0.005573456217951464
96,1456704107965472,0.002495238750405195,0.008792640086835751,0.0066714806330682285
97,1456704107986499,0.002603907513430878,0.006026863510305282,0.007654305524169799
98,1456704108002691,0.002883715425359409,0.004325364789134848,0.008339621027395246
99,1456704108025691,0.003529571905420242,0.003666315754553305,0.008581607731732933
100,1456704108046511,0.004688658672597902,0.003974231209986474,0.008304752570223117
101,1456704108070511,0.006361879291626355,0.005173787467835154,0.0075229546522179915
102,1456704108085763,0.008367703104524078,0.0071768753109597025,0.006338521712488885
103,1456704108106841,0.010380026429149687,0.009808611953011092,0.0049328647301411085
104,1456704108121842,0.012022657239312545,0.01272105481390558,0.0035522103528106497
105,1456704108145844,0.012983930554719223,0.015375000887715495,0.0024747077212837485
106,1456704108166105,0.013111195051081593,0.017151555775424213,0.0019496074663073295
107,1456704108182563,0.012454205436477092,0.01757129739898116,0.002123043755567335
108,1456704108212069,0.011244580270417496,0.016504473957338537,0.002982223467942768
109,1456704108226103,0.009821195896894192,0.014240986525909698,0.004346340772400313
110,1456704108242069,0.008528978054641709,0.011376419792311085,0.00591425646657124
111,1456704108265071,0.007621870376918065,0.00858142850315244,0.007355650687776083
112,1456704108286082,0.007194689120022793,0.006373188812599723,0.008411618028606918
113,1456704108302120,0.007162776794284592,0.004989231765758868,0.008964098596048678
114,1456704108325119,0.007300387044595371,0.0044031320832513925,0.009050014179090226
115,1456704108349120,0.007330441470014175,0.0044447132369407946,0.00882405784127848
116,1456704108362330,0.00703230601072265,0.0049346800799792865,0.008490133916054911
117,1456704108385501,0.006319311733833302,0.005754243061008044,0.008222419767479434
118,1456704108406274,0.005253559393296,0.0068332560061707855,0.008099740367693477
119,1456704108421999,0.004003909870138039,0.008096841385159348,0.00808085882587253
120,1456704108447002,0.0027800229440806882,0.009420436668566318,0.008034577781787802
121,1456704108466009,0.0017724369878360062,0.010621871178032262,0.007809651889138487
122,1456704108489771,0.0011110145227311687,0.011495870874940872,0.007310862597538158
123,1456704108505778,0.0008428043759586322,0.011875219792087036,0.006549835280325384
124,1456704108526116,0.0009291063250219925,0.011684993932744813,0.0056517656264023575
125,1456704108542780,0.0012621625367197232,0.010959587200412527,0.004814231805337884
126,1456704108564784,0.0016992603691077168,0.009819242494594356,0.00423146390850788
127,1456704108586575,0.0021067890709428635,0.008427206254480192,0.0040137874989818224
128,1456704108601870,0.002400773187174261,0.006950414822601111,0.004138455772888387
129,1456704108624871,0.002567070568235239,0.00553299145317034,0.0044568077113930574
130,1456704108645874,0.002650288500836169,0.004280558482907922,0.004756735716877712
131,1456704108661874,0.0027170232159054687,0.0032532038767129905,0.004852355799630017
132,1456704108685724,0.002815346543688936,0.0024702428853479084,0.004658570792834551
133,1456704108706179,0.0029538474750599717,0.0019287439969292379,0.004215710553597974
134,1456704108721912,0.003107691309252051,0.0016278182538687755,0.0036573894680488627
135,1456704108745914,0.0032399627305495448,0.0015838052721690405,0.003145863571385496
136,1456704108766915,0.0033209550420380193,0.0018272543801560544,0.0028105269520057024
137,1456704108782654,0.00333887417811096,0.0023840283105911824,0.00271239309372369
138,1456704108805381,0.003308189436841015,0.003248440545857754,0.0028385861243780445
139,1456704108826371,0.003282299907587575,0.004357009685689963,0.003122119914777663
140,1456704108842154,0.0033674958003972796,0.00557378647302546,0.0034814248527559257
141,1456704108865160,0.003726423285675141,0.006700642056992778,0.0038713133456452975
142,1456704108894547,0.00455733761231848,0.007521549302897954,0.004328948424722686
143,1456704108902243,0.00604312241710303,0.007875919280981655,0.004990297267642442
144,1456704108925245,0.008281696302783555,0.007737038733254073,0.006056053339583054
145,1456704108947247,0.011225882260076368,0.00725906294332539,0.007710041332171096
146,1456704108962246,0.014659604967297067,0.0067606496022130065,0.01002627986085419
147,1456704108985484,0.018217245917159203,0.006636035656428704,0.012910696473545013
148,1456704109007688,0.021433500438910125,0.007216224067646293,0.016094156792160617
149,1456704109022694,0.023812295524838326,0.008629988101729942,0.019157539444354055
150,1456704109046473,0.024917749728255244,0.01072413872571081,0.02157393063760764
151,1456704109067687,0.024484579443803316,0.013089624531940916,0.022790459181743574
152,1456704109084199,0.022512036013111907,0.015201938181164668,0.02237860405567714
153,1456704109105492,0.01928831464825372,0.01662385515761558,0.020222857712123163
154,1456704109127493,0.015324529202492793,0.017166684288815945,0.016649293120121835
155,1456704109144494,0.011225975599334014,0.01691654334144389,0.012397802877358612
156,1456704109165496,0.007547345303106203,0.01611924104427236,0.008421173238996046
157,1456704109187680,0.004673309791664343,0.015015889111719811,0.005588202073327518
158,1456704109208732,0.002759191498892843,0.013742672402612763,0.004414799824723167
159,1456704109225734,0.0017494258080025052,0.012337536742684526,0.004926684674643599
160,1456704109246737,0.0014560107494119429,0.010809641336628074,0.006692944379243747
161,1456704109267744,0.0016509125190040277,0.009202260661806487,0.009002371917623044
162,1456704109285263,0.002130572000155303,0.007615867156942246,0.011110965807388658
163,1456704109306755,0.0027382199754565676,0.006199431947168295,0.012473602075413648
164,1456704109328754,0.0033554031074191164,0.005127923445885849,0.012882261546761028
165,1456704109345600,0.0038847775954148965,0.004571314547916025,0.012466506749301031
166,1456704109366602,0.004243650113519066,0.004651606022305139,0.011566201516945637
167,1456704109388424,0.004377065855115903,0.005392227290595124,0.010544811657929802
168,1456704109404958,0.004283670459739339,0.006679983187394968,0.009639736896501471
169,1456704109426939,0.00403328185854043,0.008266217179107964,0.008916685271667588
170,1456704109455941,0.0037541592974203617,0.009820626262473972,0.008323953700054482
171,1456704109464976,0.003587102981250782,0.011023381979483108,0.007784440656863268
172,1456704109487451,0.0036288215581307456,0.011657863781126921,0.007259426536418091
173,1456704109507961,0.0038939667144922705,0.011663542738582697,0.006758589552278789
174,1456704109525204,0.004309934291049851,0.011127518105805105,0.006314237022069736
175,1456704109547174,0.004740998637804216,0.010224381078446013,0.005954208367928552
176,1456704109567965,0.005031944183140433,0.009140103394333878,0.005694914806048001
177,1456704109585666,0.005059804506964102,0.008017598231654205,0.005550323116467816
178,1456704109606973,0.004777933215221025,0.0069404284608196275,0.005536603607348815
179,1456704109628975,0.004234057533346638,0.005949112679667969,0.005658717923659413
180,1456704109644976,0.003552960900186437,0.005073548102388826,0.005887543189508757
181,1456704109666976,0.0028934408019833874,0.004358187781101955,0.006152344480103657
182,1456704109688278,0.0024015399372865533,0.0038568453294881132,0.006366375614470512
183,1456704109707287,0.0021762823503230946,0.003595557007838797,0.006477112100213632
184,1456704109733555,0.0022506247153116893,0.003534039160037378,0.006508743945860692
185,1456704109748295,0.0025859121718587665,0.0035641327901200664,0.006562966942125858
186,1456704109765291,0.003082299319271541,0.003554469870441682,0.006767430666013785
187,1456704109787661,0.0036062065880809015,0.003412070103067022,0.007194631029566214
188,1456704109810234,0.00402497923224211,0.0031195433947321842,0.007797053700087338
189,1456704109825235,0.00423297081685411,0.0027288716080072577,0.00840302095741402
190,1456704109847237,0.004163846030010815,0.002326066621509777,0.00878912158309684
191,1456704109876534,0.0037993126359210914,0.0019966502044076336,0.008800236498844993
192,1456704109885035,0.003184128893517606,0.0018118871340750242,0.008453021337890793
193,1456704109906551,0.002440608462843189,0.0018350422252679198,0.007959676571576374
194,1456704109929552,0.0017630650956562493,0.002133899918462994,0.007649432997203709
195,1456704109945554,0.0013784971331296098,0.002784502042059387,0.007821108276821821
196,1456704109966553,0.001478738925773377,0.0038548869735938155,0.008596755253061389
197,1456704109990061,0.002146314338087952,0.005363633708710213,0.009843919571383794
198,1456704110005576,0.003303247102665103,0.007220918923906462,0.011200272278632493
199,1456704110026577,0.004708710587008877,0.009181145772636855,0.012191526323775324
200,1456704110049578,0.006017840433631726,0.01085242385568615,0.012398173448694254
201,1456704110065580,0.006891840955843434,0.011794681275686138,0.011611138256279279
202,1456704110087640,0.007126102862692683,0.01168708354287311,0.009927964148720558
203,1456704110109794,0.006749515922881728,0.010488915655062003,0.007764666565822921
204,1456704110125796,0.006052124022315332,0.008506003837936512,0.005772580602530952
205,1456704110146799,0.00551984489870215,0.006322464560015636,0.004663421599968685
206,1456704110169058,0.005687296670805352,0.004627656035915821,0.004979455655218621
207,1456704110191230,0.006950846732076485,0.00400923860321636,0.006884189928679083
208,1456704110206525,0.009401820939025524,0.0047797024372474095,0.010058630641245804
209,1456704110228739,0.012740103485266795,0.006879171486215732,0.013759192300094565
210,1456704110251742,0.016312817197062696,0.009875589190699948,0.017036273748831737
211,1456704110266528,0.019287688190730755,0.013066682195937764,0.01904279468354079
212,1456704110289619,0.020913962531119105,0.015668864831231286,0.019311378577613482
213,1456704110311403,0.0207701402858878,0.01705042984076417,0.017888122428815427
214,1456704110326404,0.01889077752140745,0.016931769603591242,0.015282321107717378
215,1456704110349121,0.01572089950479006,0.015460441256741026,0.012271117725525768
216,1456704110371406,0.011934189564378913,0.013114947341472533,0.00963607098861304
217,1456704110386147,0.008212101611908598,0.010491052631360714,0.007914186463246592
218,1456704110409164,0.005077122730210171,0.008094935235060276,0.007245459178569144
219,1456704110433160,0.0028198802662761724,0.0062376450386590595,0.007379945627880994
220,1456704110447162,0.0015063419295662703,0.00503153048323312,0.007848535793755069
221,1456704110469445,0.0010301734768126633,0.004430211375923008,0.008221017657937889
222,1456704110491735,0.0011812673589495237,0.004270922278664496,0.008320394256030402
223,1456704110506252,0.0017136363615756988,0.0043227761198572105,0.008277219884253558
224,1456704110529084,0.0024022870465644735,0.004354243241005561,0.008398055024021987
225,1456704110550972,0.0030808255353193125,0.004205917142344819,0.008934330942351494
226,1456704110565966,0.0036545237793904283,0.0038340806459190016,0.009892848939303265
227,1456704110589477,0.00408954780114775,0.003303051576683092,0.010994512464191157
228,1456704110611495,0.004387225959172384,0.002735394726529505,0.01179721237444585
229,1456704110626495,0.004557886729900595,0.002251014271476044,0.011908004788272827
230,1456704110649497,0.004605992825576347,0.001925868951673327,0.011165337516815905
231,1456704110671637,0.004528809727967593,0.0017833104153040969,0.009699610758740766
232,1456704110686446,0.00432340427679189,0.0018097516904982778,0.007860403582952646
233,1456704110710686,0.003995459140920219,0.0019762142010903627,0.006070036476733031
234,1456704110731446,0.003565298696193472,0.0022525230910795994,0.0046804701127085525
235,1456704110746448,0.00306890969189053,0.0026115077925285748,0.0038829664021572258
236,1456704110769627,0.002553805598326227,0.003026232205052999,0.0036833795649259937
237,1456704110791598,0.002070844584679012,0.0034641057502824836,0.003932494011520645
238,1456704110806634,0.0016640347048695516,0.0038811130920432192,0.004390917350755038
239,1456704110828848,0.0013614854350404136,0.004219200166371067,0.0048057231345877555
240,1456704110851667,0.001171093559295374,0.004411584428332947,0.004979375410398975
241,1456704110865639,0.0010832100740516245,0.004400796656771865,0.004816633262612565
242,1456704110889699,0.0010794350922047843,0.00416671872436222,0.004337267435383234
243,1456704110910747,0.0011429046567079475,0.0037511146756364615,0.003648129031721568
244,1456704110925748,0.0012637496005974437,0.0032624768079976326,0.002885800068852128
245,1456704110948742,0.001436738811323328,0.0028539907530384127,0.0021596074738102883
246,1456704110970956,0.0016545664968286187,0.0026812303081697408,0.0015247234883784694
247,1456704110988523,0.0019033010350986558,0.002855190299075172,0.000995254859666116
248,1456704111009214,0.0021627557106334034,0.0034060956188782946,0.0005837383273210061
249,1456704111030987,0.002408048011728886,0.004267868033360503,0.00034033515669275826
250,1456704111047987,0.002607244134411935,0.005287224531562426,0.00036595003101347725
251,1456704111069297,0.002717225446588691,0.006255373511696926,0.0007858529951324902
252,1456704111091583,0.002688619268906188,0.006954860544107604,0.0016896959096747057
253,1456704111107602,0.002488676503192782,0.007213189198441012,0.0030637088566415364
254,1456704111128887,0.002135621116261752,0.006956398273143586,0.004751852914033699
255,1456704111151689,0.0017212764742271778,0.006251177959466503,0.006476059478223887
256,1456704111167663,0.0013979160922114697,0.005314175272669005,0.007919566201509628
257,1456704111189896,0.0013258736499014117,0.004466769454150965,0.008840412708594874
258,1456704111211491,0.0016053037349658937,0.004033361623901055,0.009156067089050101
259,1456704111228191,0.002226699731818592,0.004213867247659773,0.008950728687257641
260,1456704111249193,0.003064731038303692,0.004987439176395393,0.008405205060692648
261,1456704111271406,0.003919714948441101,0.006104502635489128,0.007699285904155248
262,1456704111288587,0.004590744559045878,0.007188307594807694,0.006949265419806503
263,1456704111309344,0.004949162562025519,0.007908448043668121,0.006213229517089722
264,1456704111331415,0.004979943694415632,0.008141402002633757,0.005546835640792018
265,1456704111347134,0.0047793006262604,0.008030727630136129,0.005054977705733207
266,1456704111369136,0.004526612398903667,0.007912032231561866,0.0048890813659367965
267,1456704111391375,0.004459165969094619,0.008149693080482896,0.0051867679003442186
268,1456704111414368,0.004856634872982786,0.008987677079394551,0.00599903509441697
269,1456704111429368,0.006009251062521958,0.010496258254513006,0.007255125625054296
270,1456704111451369,0.008136493425025254,0.012609650360443132,0.008779772812356
271,1456704111474608,0.011261574558230835,0.015173431244454083,0.010342598639802619
272,1456704111489339,0.01510652872928361,0.017931364978132608,0.011711400073095051
273,1456704111511551,0.019094892177472893,0.020472171628119904,0.012692444693827833
274,1456704111534594,0.022498377740361966,0.02223881112794259,0.013156976401333887
275,1456704111549364,0.02467361314546349,0.02268643854746878,0.013066518349524246
276,1456704111571355,0.025275251275682704,0.021550520541609917,0.012507103611121822
277,1456704111594546,0.024343959847929527,0.019053285271689396,0.011712959959964742
278,1456704111609618,0.02224068820085211,0.01587842669872918,0.011029363871561976
279,1456704111631514,0.01948168025562395,0.01290624648981534,0.010785392667173927
280,1456704111654329,0.0165660797230666,0.010870450623066113,0.011123751349556694
281,1456704111669294,0.013864259333422155,0.01011942107970405,0.011892854542206384
282,1456704111691799,0.011582437474997938,0.010559700162008084,0.012681770318299243
283,1456704111713605,0.009779530350860518,0.01175254482796746,0.012992983571467429
284,1456704111728892,0.008404802916357472,0.013091627332510168,0.012467892953124437
285,1456704111751644,0.007340534908408346,0.013992880453514251,0.01104996438697312
286,1456704111773615,0.006448394516536253,0.014045911557664489,0.009003701481076166
287,1456704111789133,0.005615781170607162,0.013098313234605361,0.006788498922395204
288,1456704111811642,0.004787648527196827,0.011263199902257862,0.004864528874667714
289,1456704111833930,0.0039707861044714745,0.008857454404077801,0.003530265704304186
290,1456704111848645,0.0032135631192146148,0.006296725258263698,0.00285364758990477
291,1456704111870653,0.0025768298247033907,0.003983239995424314,0.002702184779950887
292,1456704111894734,0.0021104242466670683,0.002216296963020169,0.0028385047134743746
293,1456704111910735,0.0018405740293461117,0.0011419374371412834,0.003033529222366197
294,1456704111930738,0.0017658168421851065,0.0007457294684521502,0.003152609006339531
295,1456704111954738,0.0018576864278381571,0.0008812370505900155,0.0031866126304316788
296,1456704111970739,0.002066119351913785,0.0013206011336258803,0.0032244968640831955
297,1456704111991262,0.002331621540110037,0.0018150495375935437,0.0033856205604764077
298,1456704112014779,0.002601636205654319,0.0021556629814120667,0.003742694831327721
299,1456704112030779,0.002841590017898528,0.002223304821368848,0.004269485430780914
300,1456704112050788,0.003031995516439282,0.002015063801428608,0.004839325925945161
301,1456704112074782,0.00315492059226637,0.0016385143012938466,0.005278799414833076
302,1456704112090094,0.0031854019512426064,0.001274009833527577,0.005452295615267284
303,1456704112111627,0.0031017028333086066,0.001114049257241206,0.005335076656382453
304,1456704112134660,0.0029112763511845007,0.0012950650366633037,0.005038074061104847
305,1456704112150587,0.0026713097326739126,0.001841773007066295,0.0047706592586900885
306,1456704112170593,0.002480935780883263,0.002645877544686174,0.004753564499106688
307,1456704112193918,0.002440626657129708,0.003494392584364609,0.005117129303223537
308,1456704112210925,0.002598931023762915,0.0041456504878221966,0.005833311797810256
309,1456704112231949,0.0029180821389228995,0.004427740816380753,0.006718097585469132
310,1456704112253969,0.0032814819343297435,0.004317082596597339,0.007504131073929177
311,1456704112270962,0.003545574464380799,0.003958709563518179,0.007948783776074678
312,1456704112292438,0.0036156929302328714,0.0036171504963835974,0.00793284557663997
313,1456704112313953,0.0035076798838191434,0.0035806580368653524,0.007513616417681311
314,1456704112331125,0.0033562359884884187,0.0040592583806509635,0.006911036332078282
315,1456704112351147,0.003356288769177679,0.005111961575646258,0.0064275304400545396
316,1456704112376227,0.0036641123983076327,0.006622883720353588,0.006329903362767645
317,1456704112391164,0.004311640431255579,0.008330595691729576,0.0067399564566523245
318,1456704112411619,0.005181804385455254,0.009898101928564258,0.007577215686342098
319,1456704112434650,0.006061767817765875,0.010996420552236364,0.008576030065981233
320,1456704112450647,0.006751528458731372,0.011377961979104694,0.00937434761221668
321,1456704112471546,0.007171395608510025,0.010935168008024417,0.009650247508943006
322,1456704112494483,0.007402883365490339,0.009747587417173395,0.009260423719037856
323,1456704112510649,0.007632386966209211,0.00810336775108847,0.00831823141890896
324,1456704112531615,0.008030948557681395,0.006465736856844233,0.007164069738340734
325,1456704112554609,0.008648196423541516,0.005371125323053757,0.006235929560641495
326,1456704112569498,0.009389161219345203,0.005284262638349467,0.00590567840410254
327,1456704112591584,0.010085497219176362,0.006463184200516384,0.006361630197371598
328,1456704112613612,0.010604689437840716,0.008882369282505945,0.0075812768627811075
329,1456704112629613,0.010913246006891754,0.012230258039438998,0.009378459728715663
330,1456704112651628,0.011054617637544818,0.01596314765214614,0.011470303127501994
331,1456704112673615,0.011084058203095345,0.019390396969463368,0.01352094381161986
332,1456704112690363,0.011035048810973835,0.021792835052818586,0.015168866240798455
333,1456704112711149,0.010939886600648367,0.02259827308911668,0.016079195739897193
334,1456704112734165,0.01085698328681417,0.021596931712824653,0.016041298176357965
335,1456704112749868,0.01085345543596885,0.01908714484978572,0.015076493750559498
336,1456704112770867,0.010950019825774085,0.015813426706764465,0.013485165202418978
337,1456704112794594,0.011080838091479228,0.012678615944925243,0.011775652551683329
338,1456704112809600,0.011107644998321238,0.010385886832628349,0.010474280507652768
339,1456704112832600,0.010880942456462213,0.009216647970092737,0.009893492416621772
340,1456704112854601,0.010309275887182844,0.009033657688388722,0.009984763053078086
341,1456704112869603,0.009399003488456875,0.009444192736704247,0.010372920316885385
342,1456704112893560,0.008250067225632728,0.009998818604534464,0.010563126789354022
343,1456704112913953,0.007017759503499252,0.010342298583226899,0.01020307264797796
344,1456704112937097,0.005862539752647192,0.010292372663652924,0.009250726231784441
345,1456704112952837,0.004908514291738883,0.009847047292520195,0.007962971980505211
346,1456704112974141,0.004221491927287603,0.009128325730029821,0.006730667401846255
347,1456704112995883,0.0038058384035780457,0.00828998514178571,0.005866530410017296
348,1456704113012884,0.003613737762560198,0.007439400833561574,0.005463461011895332
349,1456704113034221,0.003562574321383742,0.006616216083171917,0.005387080361968594
350,1456704113057222,0.0035576326738770416,0.0058295770963426585,0.00538358015090542
351,1456704113072887,0.0035146881207855744,0.005113558956434323,0.005224346547962826
352,1456704113094388,0.003376511932755297,0.004550436965342987,0.004807502674774629
353,1456704113116596,0.003120621838684253,0.004238642370988158,0.004181774367266276
354,1456704113132596,0.0027582200348340185,0.00422523964856707,0.003506149255081779
355,1456704113153603,0.0023262105342003727,0.0044514028065763276,0.0029794902033077417
356,1456704113177668,0.0018773227729067224,0.004754867959971521,0.00277040167386724
357,1456704113193109,0.0014732467750613655,0.00493878629242146,0.002965644054462705
358,1456704113214118,0.0011795757967068038,0.0048724083017523045,0.003545072081731443
359,1456704113237422,0.0010567832057081653,0.004563554681723969,0.004385198830292069
360,1456704113253120,0.0011455573247546912,0.004157219307782534,0.0052916544509657645
361,1456704113274128,0.0014525640463751036,0.0038623254837194545,0.006057294347834902
362,1456704113296361,0.0019445601033016592,0.0038516014270540814,0.006530454973012946
363,1456704113313363,0.0025531870888091572,0.0041850871145528235,0.006662867864882485
364,1456704113336545,0.0031856207329269927,0.0047831996099090045,0.006508399540133718
365,1456704113357364,0.003734322903821471,0.005450744910986829,0.006170592667358745
366,1456704113373365,0.004085118422370125,0.005941948179736361,0.0057316006212731465
367,1456704113394373,0.004130785363644329,0.00604890109938304,0.005210159018041299
368,1456704113416379,0.0037974936714823306,0.005685327070469184,0.00457818769385015
369,1456704113432380,0.003082708243356331,0.004932786164084259,0.0038256459925548815
370,1456704113453386,0.0020934902915012337,0.004026734852282437,0.0030305680784101347
371,1456704113477525,0.0010684730869992079,0.0032831251777835605,0.002388751763895885
372,1456704113493492,0.000364964869357774,0.0029913290854659876,0.0021815184819254183
373,1456704113514589,0.00039647240743667504,0.0033134917455270984,0.0026882741041100527
374,1456704113537616,0.0015192712564544059,0.004227169532478456,0.004069289399159227
375,1456704113552590,0.003888962996672639,0.005530015216845667,0.00625659456775603
376,1456704113573879,0.007333601615797664,0.006902364615025769,0.008900636571000261
377,1456704113597411,0.0113084797680343,0.00800721720688309,0.011415696044530873
378,1456704113612412,0.014988997840601061,0.00860105536939567,0.013134414700161657
379,1456704113634577,0.017503781630419754,0.008625922502487927,0.013528187309981737
380,1456704113657613,0.018228256458360584,0.008248937940956054,0.012404330223612817
381,1456704113673535,0.017009294176641442,0.007822725103444995,0.00998784991421854
382,1456704113694212,0.014222362387167346,0.007771153719937698,0.006851511710105072
383,1456704113717609,0.01065622621856168,0.00844383771438533,0.0037404423915057845
384,1456704113731493,0.007302878034253551,0.010000177637346468,0.0013801228706574456
385,1456704113753500,0.005137505345040716,0.01236856624763966,0.0003289195354403792
386,1456704113777608,0.0049176126600650365,0.01528958701430064,0.0008794893185515251
387,1456704113793663,0.006991744626414981,0.018411205291757632,0.0029891173223406562
388,1456704113815793,0.011137753232273713,0.021379339010885443,0.006244030050302641
389,1456704113836801,0.016510865781840932,0.023877530807480243,0.009900967942440794
390,1456704113852795,0.021795949260546666,0.025614490800223655,0.013050863510035399
391,1456704113875796,0.02558437870934094,0.026305747044875066,0.014892678559401414
392,1456704113897040,0.02685902673556542,0.025704306018522916,0.015019332371717726
393,1456704113912810,0.02536416686018117,0.02369740806974991,0.013573089700319856
394,1456704113935811,0.021664625040795797,0.020429203077539454,0.011179574203584279
395,1456704113956855,0.016866384066530273,0.016366255305526475,0.008688911467105613
396,1456704113972813,0.01215909956141901,0.012228585261559732,0.006849226980791199
397,1456704113995822,0.00841444191281464,0.008780385038633565,0.006055223760027042
398,1456704114017124,0.005999510121704235,0.0065702615370522525,0.006263332629528146
399,1456704114040829,0.0048197764698585015,0.005751706729817092,0.007082322863352254
400,1456704114055867,0.0044995734807181925,0.006066173816204653,0.00797388396225034
401,1456704114076868,0.004588001614113551,0.0069781435046108,0.008465038326500455
402,1456704114093346,0.004714547646382249,0.00788396486777311,0.008291236036452192
403,1456704114116515,0.004663973925960888,0.008305661331358825,0.007436501995787346
404,1456704114137509,0.0043754386047540495,0.008010800348325154,0.006087046687195907
405,1456704114159504,0.0038948054621741218,0.007037477241433195,0.004542613088351983
406,1456704114176507,0.003316820720844392,0.005633184411219519,0.003126754295650374
407,1456704114197573,0.0027431312109485193,0.0041411029381119525,0.0021171590046338276
408,1456704114219574,0.0022625584448615673,0.0028841739493085296,0.0016988165979761063
409,1456704114235575,0.0019453635528916462,0.0020887911117670435,0.0019336277120770426
410,1456704114256825,0.001839802305563494,0.001857356260931649,0.002741847872756004
411,1456704114278583,0.0019646733249951936,0.0021729397974966868,0.0039022664478656063
412,1456704114296084,0.002299829037602965,0.002918721716990651,0.005088582647302474
413,1456704114316841,0.0027819212400926347,0.0039057858953621977,0.005953580735184848
414,1456704114338793,0.0033118984278800497,0.0049083761439153335,0.006244936596170094
415,1456704114355593,0.0037754826387665905,0.005706530238822598,0.0059028436326788395
416,1456704114376846,0.004071925957504084,0.006135286386986466,0.005082556968790901
417,1456704114398636,0.004142071974588511,0.006132678196960062,0.004082785355686835
418,1456704114415605,0.00398476684630712,0.005766199247227665,0.0032193781037167394
419,1456704114435809,0.003652807941746234,0.00521458314936408,0.002714024716443207
420,1456704114459609,0.003228741063151565,0.004700996224528392,0.002647013708376581
421,1456704114475609,0.0027939467464560656,0.004404755338607632,0.0029751764857876566
422,1456704114496621,0.0024090781265756664,0.004396272564317825,0.003581050478598219
423,1456704114519628,0.0021122889643401493,0.004627720314274442,0.004316729498949012
424,1456704114536629,0.0019259079187895405,0.004977164558119465,0.005027158468267199
425,1456704114557631,0.0018598465010769187,0.005313324150248786,0.00556155429129184
426,1456704114578918,0.0019096590816072164,0.005544654004149672,0.005791049945789121
427,1456704114595143,0.002053869885531894,0.005637603743290347,0.0056401560616315015
428,1456704114617652,0.0022542254745014085,0.00561129263485299,0.005119925995259919
429,1456704114640653,0.002461286091705239,0.005521014589147919,0.004342002123272808
430,1456704114654654,0.002627859446540803,0.005435444328274629,0.0035022015947795337
431,1456704114677655,0.0027280331210685284,0.0054096354790486734,0.0028366078276831613
432,1456704114698953,0.002771361961964291,0.005462746246749809,0.0025600348651329324
433,1456704114714676,0.002800238138080672,0.005572212554458488,0.00279930915594996
434,1456704114737676,0.002867456648100237,0.005685724233395074,0.003539058844115064
435,1456704114759678,0.0030037322771646483,0.005740300521387324,0.0046040444917937575
436,1456704114774679,0.0031933472946466955,0.005678616044017157,0.005698862769549069
437,1456704114797702,0.0033753067963041786,0.005461724736314235,0.006503191601751085
438,1456704114818989,0.0034747209817721624,0.005079227326859581,0.006787329320030941
439,1456704114834702,0.0034489407483179854,0.004552629015568532,0.00649687325466539
440,1456704114857703,0.00331966108876456,0.00392942800831921,0.005773347613948636
441,1456704114878711,0.003168961142642342,0.003276384740748423,0.004911462974540389
442,1456704114895215,0.003101033747965379,0.002683635699043541,0.004274384766134183
443,1456704114917723,0.0031940605419364158,0.0022773034900038904,0.004189899477865599
444,1456704114938726,0.0034705648068091,0.002221308485036036,0.004848138425892196
445,1456704114954726,0.0038972983458987562,0.0026892523990864983,0.006226443720826496
446,1456704114978727,0.004403695362327063,0.0038053992488335355,0.008072019099219228
447,1456704114998958,0.0049008267959291625,0.005573442519264832,0.009961934053211243
448,1456704115014751,0.0052930194589590595,0.00782143120735237,0.011426941128017374
449,1456704115037752,0.005487997387728512,0.010192915278105077,0.01208993688255667
450,1456704115058861,0.005415968168499101,0.012208241632888379,0.011764177481293468
451,1456704115075014,0.005060978162247617,0.01339841560816665,0.010488105512936781
452,1456704115097776,0.004494862427435146,0.013477908150274909,0.008511925643619455
453,1456704115119063,0.0038951222637885656,0.0124888020443392,0.0062613477038767976
454,1456704115134781,0.0035302340837880322,0.010840970307011095,0.004285435286908407
455,1456704115157781,0.003708312576726478,0.009210239960920163,0.0031763010708770576
456,1456704115179081,0.004699512148358702,0.008324860292315097,0.003449996093095548
457,1456704115195793,0.006650501108465073,0.008721694241524022,0.005396861258900294
458,1456704115217801,0.009510878788932257,0.010559052799396177,0.008936288915575389
459,1456704115239097,0.012993245463312948,0.013550803572538418,0.013540485447281253
460,1456704115254803,0.01659262344157594,0.017053351789244428,0.018301051809710908
461,1456704115277804,0.019688197799015816,0.020286975450746075,0.02216312762225182
462,1456704115299109,0.021721649452305633,0.022611778090615455,0.024251830251483423
463,1456704115314823,0.022385843473644182,0.023740085159354912,0.024144753838566083
464,1456704115337827,0.02171604167921861,0.023787422621320664,0.021975152265701684
465,1456704115358827,0.020023807525987987,0.023147166201911363,0.01835042905027363
466,1456704115374845,0.0177262610313824,0.022271033192833835,0.014143859428610153
467,1456704115397840,0.015186369147454245,0.021479208646213905,0.010234386868925291
468,1456704115419109,0.012642349225002706,0.020885608537605252,0.007271266459491419
469,1456704115441849,0.010225656885592915,0.02044042173387061,0.0055388556805770536
470,1456704115457844,0.008016459882922012,0.02002185202845752,0.004962068368693787
471,1456704115479012,0.006083112591444705,0.019501305322264097,0.005225490320422322
472,1456704115502156,0.004486039881416311,0.01875982783415945,0.005926560595212616
473,1456704115518140,0.0032636093370091357,0.017687053824049198,0.006688876454549354
474,1456704115539442,0.0024259613232523987,0.016199697058028754,0.007216742766627343
475,1456704115563142,0.0019639845644833227,0.014286477102499268,0.007320528232123055
476,1456704115578143,0.001861229214081736,0.012050787836555997,0.006940679385084452
477,1456704115599161,0.0020949417880081326,0.009707232722403104,0.006162684717815068
478,1456704115622162,0.0026252432026884847,0.007514168903804146,0.005195558329737018
479,1456704115638164,0.0033825283140731873,0.005676192836610363,0.00430424870417754
480,1456704115662163,0.004262303118683973,0.00427803082663733,0.0037189798780141747
481,1456704115682184,0.005129766815516418,0.0032876524845002275,0.0035606003347388553
482,1456704115706196,0.005834001499913315,0.002615342363896123,0.0038118709203075227
483,1456704115721191,0.006233544777456186,0.0021810662142173164,0.004340453868972247
484,1456704115742238,0.0062326408094215,0.001948322184967329,0.004955078474296313
485,1456704115758199,0.0058172973204078,0.0019154920529027685,0.005465580336745224
486,1456704115781230,0.005071536052699453,0.0020840118095045686,0.005725511667826912
487,1456704115802413,0.004158989974272805,0.002428948046093421,0.005653608836258027
488,1456704115818251,0.0032732206419103646,0.002887566259809649,0.005241707058180087
489,1456704115841256,0.0025782920730992014,0.003368520253697229,0.004554194855898888
490,1456704115862256,0.0021657737937772637,0.0037749852984420075,0.003715546814349714
491,1456704115878465,0.002043097746614841,0.004030182062069333,0.0028823243886456
492,1456704115900462,0.0021503187195273657,0.004094409941501656,0.0022063747617769294
493,1456704115922445,0.0023913223199388835,0.003969394967726365,0.0018026736674090162
494,1456704115938347,0.0026666491976262722,0.003693627286770423,0.0017297497083943088
495,1456704115961444,0.0029002302736204715,0.0033339811882880147,0.0019819146951248288
496,1456704115982397,0.0030532867970271727,0.0029734651221489596,0.0024909612202688425
497,1456704115997456,0.0031202748171946077,0.0026910123978464207,0.003138414590101631
498,1456704116021462,0.0031113505746372975,0.002534534392689725,0.0037805253829086382
499,1456704116041482,0.003036527056275584,0.0024990594348786826,0.004284097277761483
500,1456704116057464,0.0029046020085051545,0.0025256760057780652,0.004563505252481578
501,1456704116080466,0.002735040622755399,0.002527472928779932,0.004603371608405236
502,1456704116101518,0.0025689777863718653,0.0024313895389064546,0.004455047707680706
503,1456704116117478,0.0024676621829247745,0.002213672071830309,0.004208808692422508
504,1456704116140479,0.002497437521165634,0.0019116513993597617,0.003957409989310025
505,1456704116161516,0.0027080934319169904,0.0016111221635098487,0.0037701453588920063
506,1456704116177481,0.003112563240562694,0.0014210342098455475,0.0036881194533254498
507,1456704116200501,0.0036740309822642786,0.0014467578960555311,0.003737419396072765
508,1456704116221507,0.004304717067431496,0.0017653311058920425,0.003946464886186665
509,1456704116237503,0.004879051912852848,0.002400709288937858,0.0043524591867507645
510,1456704116260504,0.005260716360977047,0.0033002903488437776,0.004988901103063946
511,1456704116282060,0.0053376872321008965,0.004324513082136438,0.005858022505994938
512,1456704116297561,0.005055652851972399,0.005267550323380475,0.00690386819098578
513,1456704116320567,0.004442755551213073,0.005917694557088363,0.008007140943451046
514,1456704116341831,0.003626428207262978,0.006144369526946121,0.009016635430523137
515,1456704116357569,0.0028456600826654676,0.005978916083535124,0.00981350407365174
516,1456704116381570,0.0024503384518640148,0.0056504454393564675,0.01038056293432291
517,1456704116402519,0.0028633221151838297,0.005550705938514873,0.010835213938286466
518,1456704116418298,0.004483359583182919,0.0061282151033009965,0.011397262144869125
519,1456704116440565,0.007534368625844108,0.007739436544956163,0.012297297441900543
520,1456704116464299,0.011903197620416752,0.010501760605754577,0.013661709578974324
521,1456704116478444,0.017038531453075406,0.014196423845284712,0.015420230641088929
522,1456704116499734,0.021994951068115755,0.01826430763817736,0.017276614376107065
523,1456704116521776,0.025670169296197608,0.021923272089689014,0.01876722548127768
524,1456704116537959,0.027183880780805015,0.0243980734277029,0.019399451613473916
525,1456704116559738,0.026233844379350793,0.025190041171905916,0.01882072355118117
526,1456704116581776,0.023236105453416877,0.024263342224883196,0.016952174648573227
527,1456704116598272,0.01915817920500386,0.022045192357872924,0.014041418906285064
528,1456704116619780,0.015126413237534884,0.019235607335059163,0.01062030604268984
529,1456704116642781,0.012011673489668974,0.016531969543244804,0.007378130184009378
530,1456704116663782,0.010189001077470606,0.0144126572404588,0.004984744218977325
531,1456704116679783,0.009545267811857397,0.0130674937827897,0.003913723062568149
532,1456704116702814,0.009666748289448676,0.01245874258201516,0.00431107067098651
533,1456704116724005,0.010066784597222713,0.012422700545895848,0.005943172841170961
534,1456704116740045,0.010343765540107948,0.01272983549409012,0.008249463904886494
535,1456704116762814,0.01024618478037039,0.013093944673358136,0.010504566336659707
536,1456704116784238,0.009681824173786815,0.013184933480274271,0.012050136255875907
537,1456704116799569,0.00870370144301465,0.01269676656517907,0.012509573994809382
538,1456704116822572,0.007474188507847537,0.011459979146689921,0.011888580259226249
539,1456704116843580,0.006202499264205513,0.009528703832220478,0.010514425364816846
540,1456704116859576,0.005071094332864999,0.007175536300656841,0.008854668122262188
541,1456704116883367,0.004180812335492337,0.004792205009492094,0.007320134726346396
542,1456704116904013,0.003536141502702247,0.0027556439974923924,0.006149119810892638
543,1456704116919801,0.0030713532853563004,0.0013254469326959906,0.005403090853800226
544,1456704116950803,0.0027003895311899216,0.0006020291586900522,0.005034654131805389
545,1456704116964050,0.0023652574779436885,0.0005379696695834962,0.004961241516376033
546,1456704116979806,0.0020609677217414734,0.0009799034943701545,0.005100015421471119
547,1456704117004609,0.0018285198186516526,0.0017205746467378927,0.005364258197935031
548,1456704117023616,0.0017248082728244926,0.0025481641784982933,0.005650852625334805
549,1456704117039611,0.0017897670260785088,0.0032851102339670328,0.005844753012087614
550,1456704117062613,0.0020287941668103693,0.003811506587301737,0.0058436549322914005
551,1456704117084193,0.002413922471235403,0.0040728330590834435,0.005588266289405958
552,1456704117099927,0.0028932539638387377,0.004077474925460715,0.005081172653460351
553,1456704117122928,0.003397353850023745,0.0038895806075314662,0.0043862375746206266
554,1456704117144213,0.003841550310584462,0.003615788503677929,0.003612505581949845
555,1456704117159932,0.004132500118806603,0.00337994633312257,0.0028934508525043827
556,1456704117182931,0.004187845318003769,0.003286338855159757,0.0023678787062717315
557,1456704117203454,0.003968041863306105,0.0033830067814814577,0.0021578933547998277
558,1456704117227449,0.003504761284081323,0.003641081943662312,0.002338046941073208
559,1456704117242450,0.0029037175188070226,0.003961295345168856,0.0029032706093898423
560,1456704117263452,0.002311650334327561,0.004209137183768568,0.003755305196576816
561,1456704117280455,0.001860453332334984,0.004268728661055229,0.004721808602895594
562,1456704117303403,0.001617056586795759,0.004095587496147102,0.005603295567695406
563,1456704117324404,0.0015643822551422459,0.003745870534544357,0.006227687484489167
564,1456704117340381,0.0016213804990003922,0.00336797504308542,0.006491947731428476
565,1456704117370416,0.001691143991680859,0.0031571305036913588,0.006382820562988591
566,1456704117384366,0.0017138028156007414,0.0032862691047182567,0.005980772454947454
567,1456704117399455,0.0016981763580265436,0.003834553378946639,0.005449984391444292
568,1456704117422489,0.0017147067662755635,0.004740017834168023,0.0050064700320646615
569,1456704117443471,0.001851476934225365,0.005800102659435751,0.0048554011003108044
570,1456704117459466,0.00215673854086594,0.006727715221691899,0.005107909230288742
571,1456704117483466,0.002601150376981398,0.007247170128374232,0.005713826993949989
572,1456704117507692,0.0030822435525748953,0.007195916682068686,0.00645665678049262
573,1456704117519694,0.003468163514761773,0.006590243810396059,0.0070361941881968496
574,1456704117542694,0.0036545646727830492,0.005621902325475724,0.007216389788358145
575,1456704117563696,0.0036038018378027445,0.004582975861409182,0.006965772312486284
576,1456704117579698,0.003351200082708273,0.003754803924188194,0.006502474633419925
577,1456704117602328,0.002984337361012073,0.0033148037446019407,0.006198820525598682
578,1456704117625329,0.002611117557865774,0.0033001578567127595,0.006383103428679932
579,1456704117647330,0.0023295158921239727,0.0036351003130547467,0.007144976429757053
580,1456704117662368,0.0022070163558793737,0.004201491834134879,0.008258388894262881
581,1456704117686316,0.0022765056382249385,0.004918572200901026,0.009276167023739026
582,1456704117700317,0.0025527995098851963,0.00579552741112931,0.009756961224348826
583,1456704117722561,0.003064666529561917,0.006932483337983267,0.00950943591453509
584,1456704117745563,0.0038842376313884455,0.008471015625578743,0.00872445000011239
585,1456704117759563,0.005129005555168128,0.010518406302047787,0.00792231485537524
586,1456704117782565,0.006918428389107054,0.013075847767271415,0.00773195306409704
587,1456704117805952,0.009285856320720008,0.015993468693321047,0.008595058062384975
588,1456704117819953,0.012072651469178044,0.018966454278419642,0.010528654132036807
589,1456704117842956,0.01486163373996511,0.021581369753354843,0.013070500374100732
590,1456704117865956,0.01702382691741658,0.023415299793154144,0.015457097258321131
591,1456704117879957,0.01791673990350485,0.024170696105125886,0.016960037030856804
592,1456704117903075,0.01717226728342909,0.023792434167996906,0.01720908484594886
593,1456704117926076,0.014919670947534963,0.022491774841617695,0.01633886759514107
594,1456704117947078,0.01180205637850526,0.02064165960262119,0.0149022226395253
595,1456704117963079,0.008762560111759118,0.018598563801375503,0.013609639469803918
596,1456704117986103,0.006699871814633151,0.0165664516354433,0.01301506227688554
597,1456704118007393,0.006143138933079157,0.014587103561718976,0.013275008287036507
598,1456704118023399,0.007071854793880892,0.012644395082583656,0.014081843819546365
599,1456704118046339,0.008941603532909499,0.010788833311081615,0.014812962554499695
600,1456704118066348,0.010900925169521162,0.009185880399430085,0.014840845332372937
601,1456704118083394,0.012115799089107447,0.008059123841653732,0.013850414467899384
602,1456704118106327,0.012074751388167344,0.007572374221632854,0.011988094084922131
603,1456704118127395,0.010752863019561167,0.007724284128319067,0.009763637335322095
604,1456704118143102,0.008575611779438977,0.008314156683076893,0.007778617870038109
605,1456704118166103,0.00621589723888996,0.008997989443589573,0.006449161807368889
606,1456704118187357,0.00432676108858673,0.009408885155332992,0.0058672554517856836
607,1456704118202506,0.00332071458859911,0.00928400710751875,0.005840672227959164
608,1456704118225507,0.0032634820299315775,0.008538260153565222,0.006047225340404158
609,1456704118246509,0.0038962737227261333,0.007259713126004667,0.0061984790214941795
610,1456704118262509,0.004763778047778404,0.005652552789024314,0.0061401233238890475
611,1456704118286304,0.005400769065342113,0.00397840356202257,0.0058765471336594995
612,1456704118306967,0.005510519005772124,0.0025271361309231197,0.005542928248187888
613,1456704118322739,0.005066118115155821,0.0016084303691748004,0.005346796057755176
614,1456704118344740,0.004297160901802442,0.0015320948367208518,0.00549042158344479
615,1456704118367048,0.0035762405779720618,0.002551982432729793,0.006090943103176269
616,1456704118382742,0.003259105916582256,0.004773554521820762,0.007128149313711495
617,1456704118411883,0.003541622985866908,0.00805166796757683,0.008443686477942391
618,1456704118426877,0.004383323720512468,0.011926238377098147,0.009786156286595956
619,1456704118442877,0.005522269473463417,0.015654586762021125,0.010872810327482479
620,1456704118464879,0.006573524986458209,0.018380228057248146,0.011445154550591493
621,1456704118486885,0.007172315444653351,0.01940900553706544,0.011318911513102724
622,1456704118502891,0.007107379979039713,0.01847633527216578,0.010432968161679887
623,1456704118524892,0.006396413368338156,0.015865175694206597,0.008880642576023414
624,1456704118547894,0.00527815435909732,0.012311884806224157,0.006895225114739382
625,1456704118562894,0.0041262913233517445,0.008753823744868995,0.004786535948021162
626,1456704118586091,0.003319893183601483,0.006038356881350987,0.002860945361291132
627,1456704118608079,0.003121227511335676,0.0047028695289909,0.0013623962579526797
628,1456704118623067,0.003605640374945839,0.00488211039428835,0.000446724275058343
629,1456704118645095,0.0046636241916847045,0.006341295818471766,0.00017905936550078976
630,1456704118667874,0.006066217368091663,0.008595265969283115,0.0005407337252245721
631,1456704118682875,0.0075616667525122425,0.011063914191884728,0.0014386723963321366
632,1456704118704669,0.008958760165659696,0.013223868459176454,0.0027179514528114265
633,1456704118727671,0.010160406104875749,0.01472636631698149,0.004185634651301386
634,1456704118742672,0.011144099993655949,0.01545099360002605,0.005654746697988233
635,1456704118764674,0.011921116305251223,0.015473718933798059,0.007003388596248823
636,1456704118787962,0.012511179158220096,0.01496880630476879,0.008222450294103208
637,1456704118803445,0.01294149357448392,0.014111336517753597,0.009416384954127754
638,1456704118824277,0.01324968900112866,0.013041882161937426,0.010737918839473982
639,1456704118847278,0.013468893773429962,0.011893323178226953,0.012273789961827035
640,1456704118862442,0.013597809033940048,0.010826329822164976,0.013937135406601799
641,1456704118892290,0.013583485301254082,0.010022672434433283,0.015438245212586623
642,1456704118907797,0.013345877041597787,0.00962805054932565,0.01637394895353904
643,1456704118922798,0.012844242498650413,0.009678005907997125,0.016400483440689784
644,1456704118944800,0.012143734916823735,0.010058284188717886,0.015390199909730489
645,1456704118968801,0.011424088108408843,0.010538250653602758,0.013483903657668049
646,1456704118982800,0.010905514997415194,0.010874691385379671,0.011031839846098174
647,1456704119004866,0.010729667621687497,0.010931940953302851,0.008483842483411075
648,1456704119033837,0.01087426605459951,0.010741143055601044,0.006283704604262687
649,1456704119049034,0.011160933965014936,0.01045408558343415,0.0047791357538776065
650,1456704119065076,0.011349560787149396,0.010216848841511448,0.004142411952075968
651,1456704119088286,0.011253779120013598,0.010045255661215415,0.004316099650600956
652,1456704119109552,0.010807057642543893,0.009788899260645464,0.005014927785049706
653,1456704119124552,0.010056437520015359,0.009219199997768364,0.005805598414160055
654,1456704119148555,0.009117098092831583,0.008200487837998375,0.0062560135138255285
655,1456704119170554,0.00813685898924639,0.006847389009554772,0.006107938995579772
656,1456704119184554,0.007288278679764918,0.005568206158838154,0.005401692775567069
657,1456704119208256,0.006766500678246675,0.004946946109500375,0.004489524681142453
658,1456704119228990,0.0067613704344055845,0.005502993675916008,0.003918279825448576
659,1456704119245251,0.007395434933630829,0.0074410692720038776,0.00421725382433046
660,1456704119269261,0.008654401320928618,0.010521512379358859,0.005667955709650361
661,1456704119289212,0.010358448926997652,0.014129590155842541,0.008149360013439147
662,1456704119304223,0.012212341096997502,0.017521723829288044,0.011138496326417462
663,1456704119328334,0.01392601782129886,0.02012049933514337,0.013891550345984209
664,1456704119349227,0.01533851343500748,0.02168927901138512,0.015743351535847144
665,1456704119365228,0.0164557771138272,0.022297331077345516,0.01638657561241852
666,1456704119388171,0.017365068495653085,0.02214551680087813,0.015985018380412396
667,1456704119408883,0.018090508610426843,0.02141823660160127,0.015061087361314958
668,1456704119424668,0.018520511456913226,0.02026420495079285,0.014224738131758726
669,1456704119447670,0.01849006177621464,0.018862861766891517,0.013888916335766253
670,1456704119468677,0.01795554257503589,0.017464747610851504,0.014102756848482896
671,1456704119484672,0.01709041128914082,0.016355452565986167,0.014560988892795832
672,1456704119507407,0.016187634431353334,0.015786843394369327,0.014769005170187196
673,1456704119530409,0.015439798671788036,0.01593457805938568,0.014285880535356277
674,1456704119544410,0.014790370029805945,0.01687760927069508,0.012939457501802296
675,1456704119567410,0.0139887092839783,0.018551348065861187,0.010916130661844176
676,1456704119591342,0.012810702139354679,0.020671179055803922,0.00868382190971552
677,1456704119605075,0.011284377424237263,0.022706854171542806,0.006792085990739817
678,1456704119628079,0.009766131244542814,0.02399939836761554,0.005653029824171063
679,1456704119650862,0.008815228057500523,0.024012764173694703,0.005402335171852503
680,1456704119664862,0.008932722911825727,0.022585152470889287,0.005886494790342299
681,1456704119688153,0.010302149936316767,0.020013520320777432,0.006759918011098898
682,1456704119711163,0.012662754403006614,0.016911770225486025,0.007635066687407418
683,1456704119726164,0.015371274168346502,0.013937096659824323,0.008222818042374933
684,1456704119748166,0.01761565844695684,0.011546820430913839,0.008417700064313253
685,1456704119771167,0.018688343480259505,0.009895106190806625,0.008306505136633264
686,1456704119792251,0.018220788876381587,0.008878389906580724,0.008107668456059263
687,1456704119807753,0.016302318142581103,0.008266260154570132,0.008079475601411932
688,1456704119830755,0.013442032606096152,0.007834739069701823,0.00844335480454054
689,1456704119844756,0.010386511990691382,0.007444598540026493,0.009338916423731193
690,1456704119868756,0.007862421578747662,0.007054802496969323,0.010789520889795253
691,1456704119890762,0.0063400018589764755,0.006695118573226441,0.012658846711361079
692,1456704119904775,0.005901937176231128,0.006425204580689435,0.014622591837636228
693,1456704119927776,0.0062625530288764495,0.006294918558791107,0.01621020805379257
694,1456704119950777,0.006921886723093745,0.006313672778274965,0.016942090353795382
695,1456704119971779,0.007378658734749463,0.006438287812386503,0.016516776960994652
696,1456704119995986,0.007305135536081385,0.006586577938669677,0.014954447082983961
697,1456704120011252,0.006622278419026435,0.006671532356594384,0.012619106381266964
698,1456704120032244,0.005474220924764017,0.006639267512810963,0.010106928201977275
699,1456704120048002,0.004141399276499784,0.0064932341188216215,0.008053851372303784
700,1456704120071249,0.0029371274757374584,0.006292101123737705,0.006945396657771974
701,1456704120092316,0.002119291077918133,0.0061155629396257485,0.00699848886770833
702,1456704120108166,0.0018337146320669179,0.006009385863924172,0.008141600395061085
703,1456704120130938,0.002093291385092658,0.005943207847138281,0.010071020940087891
704,1456704120151981,0.0027876686659654504,0.005815689866447858,0.012334752080747179
705,1456704120167940,0.0037133856344811547,0.005510641359627007,0.014404027536566907
706,1456704120191380,0.004614736872336968,0.004968551512519845,0.01572747593631226
707,1456704120212400,0.005230915567226581,0.004224029029089432,0.01579715243634594
708,1456704120227399,0.0053510990663405734,0.003383684988148403,0.014254383063034148
709,1456704120249243,0.00487620153076001,0.002562233269196868,0.011018731631872693
710,1456704120272355,0.003868801470549763,0.0018212660598630412,0.006375519671855035
711,1456704120287392,0.0025568855081444086,0.0011465588348379657,0.0009559626542162132
