,timestamp,x,y,z
0,1456704106043305,0.024980928951615546,0.04331528081220683,0.1045490872520626
1,1456704106066306,0.45942498878393734,0.1844567444259581,0.07520335639128585
2,1456704106082315,0.8459954468301404,0.3122590425105978,0.05520298545421236
3,1456704106103318,1.1466911700610116,0.4143336156926937,0.05239205299441335
4,1456704106127529,1.3398393159452617,0.4816103885860418,0.07161821174889456
5,1456704106142326,1.4225243240788619,0.5113765429468625,0.11349378005034233
6,1456704106163322,1.408213223774111,0.5094245831501173,0.17350132152727787
7,1456704106187338,1.3204258041823727,0.4889623337895882,0.2418983705141139
8,1456704106218355,1.1850904472400865,0.4658411920858776,0.3051506831793635
9,1456704106219350,1.024733811882905,0.45256596788562775,0.34928810016990913
10,1456704106240353,0.8561360560605382,0.4544294995871061,0.36444668952466597
11,1456704106269352,0.691164965014362,0.46926397851705753,0.3486211397024852
12,1456704106279367,0.539603415730236,0.4899349643337356,0.3085746134306091
13,1456704106309583,0.4124806761321502,0.5077634205667939,0.25741223640384164
14,1456704106336584,0.3239561308954327,0.5153240202357126,0.2102278972861488
15,1456704106360586,0.28972437827260705,0.5076767258409943,0.17977291314830252
16,1456704106361749,0.32142455073572657,0.48196950100298164,0.17326935940778315
17,1456704106380593,0.4193669961492367,0.43642698126257556,0.1906846336321545
18,1456704106405775,0.5678532079083909,0.37031303098442514,0.22473977567856723
19,1456704106420773,0.7367456715241809,0.28590316674541566,0.26313807706794895
20,1456704106439826,0.8900952067853167,0.19189130366714077,0.29314717482102093
21,1456704106464769,0.9990965345232324,0.10591744927730533,0.3074525847934976
22,1456704106480644,1.0540482976367747,0.053456035289942166,0.3087572037917855
23,1456704106500856,1.0696381497803664,0.06173679243658194,0.31025022196982005
24,1456704106516857,1.0801528569452654,0.14980572661946168,0.3306409714661648
25,1456704106539859,1.1251804459570562,0.31804092597276507,0.38525636216847614
26,1456704106560859,1.230447745360801,0.5417776576668771,0.47709235157543134
27,1456704106577386,1.391586289646595,0.7735815018993601,0.5924727240569965
28,1456704106599894,1.569702483932915,0.9561743451918452,0.7046578252580186
29,1456704106620117,1.704449568808876,1.0429245082559284,0.7853447603006358
30,1456704106636894,1.7420698030280635,1.0174354556376466,0.8193442106892543
31,1456704106659896,1.6661116705581378,0.9023304351865659,0.814439251726365
32,1456704106680626,1.5136099154845675,0.7523750379300248,0.7999405674601786
33,1456704106703263,1.3645468322392151,0.6355210209994049,0.8139231984412325
34,1456704106719975,1.3066865784186366,0.6105107602747689,0.8855832021764068
35,1456704106739977,1.3927972306225918,0.7085962356524279,1.0206051562198808
36,1456704106762979,1.6122315976273112,0.9237579287146394,1.1948000850421245
37,1456704106780501,1.890922794480494,1.2144226949966699,1.358607387925462
38,1456704106800294,2.11958160371427,1.5180263341681317,1.452708471869071
39,1456704106825008,2.198104658118339,1.7742671355248407,1.4305015420210914
40,1456704106840009,2.0791740780133745,1.9458959965442142,1.2779557862203452
41,1456704106862011,1.7946069630055266,2.025260779108981,1.0209206991738071
42,1456704106883839,1.4524420069604203,2.024687239398758,0.7163874087323426
43,1456704106899831,1.2018362329419443,1.9616948320823455,0.4326800959922813
44,1456704106920793,1.1761210920844216,1.8527660706377704,0.2279863323708326
45,1456704106943829,1.4359673850930743,1.7185130149313628,0.13542243515391306
46,1456704106959754,1.9370528720054254,1.590513004447206,0.158362170037746
47,1456704106982158,2.5378763473627775,1.509062828916329,0.2750796506061491
48,1456704107003827,3.047684339578295,1.5107053133765356,0.44881640032485587
49,1456704107019824,3.2978402796078576,1.6128494453228683,0.6387234266487128
50,1456704107041675,3.207810728439794,1.8032681138863287,0.8083192399008728
51,1456704107064671,2.815546999706395,2.038573686743645,0.9303460369265246
52,1456704107080192,2.2564263370243536,2.2531967010662246,0.9889810594183981
53,1456704107102209,1.701071565889887,2.3779330422889524,0.9809658582149603
54,1456704107123215,1.28451043122275,2.3624613345982275,0.916284009424071
55,1456704107140212,1.0614634552899502,2.192447912484997,0.8175974460204387
56,1456704107162213,1.004480778034152,1.8937892732829829,0.7166954551349299
57,1456704107183228,1.0375643272297976,1.5234211681524905,0.6468453092524925
58,1456704107200234,1.0828033270062265,1.152458108324108,0.6327884712296085
59,1456704107222235,1.0964685792104798,0.8492794964500094,0.6828880100238633
60,1456704107243236,1.0803986231753673,0.6675363580700802,0.7870394417699873
61,1456704107260245,1.0681573063099272,0.6394988748300361,0.9199919408352877
62,1456704107282759,1.0973641093383286,0.7724602960231107,1.0474097074514988
63,1456704107303675,1.1846920736900943,1.0471686601110417,1.1335542713166682
64,1456704107320675,1.3159838881356916,1.4202016667550208,1.1512879692223628
65,1456704107342473,1.453554618441226,1.8326103540067475,1.093034393187624
66,1456704107363469,1.553221133513636,2.224050899025068,0.977041934749877
67,1456704107380484,1.5812320694847695,2.547923173203523,0.8427112868640413
68,1456704107402407,1.5255132491871188,2.781626337076931,0.7344979139403917
69,1456704107423408,1.4000325737388197,2.927310364494193,0.6815978960162917
70,1456704107440410,1.2416389540946517,3.001774121380635,0.6838919400173601
71,1456704107462354,1.0987062730104984,3.0193512491640035,0.711768467481198
72,1456704107483611,1.014613447291313,2.977790259608165,0.7211626555253569
73,1456704107507194,1.013823097885468,2.8599805642540677,0.6782886151459548
74,1456704107522195,1.0973831630897946,2.6576493956332037,0.583293766834647
75,1456704107543496,1.2475041106892932,2.406135752849694,0.4809730129464776
76,1456704107560197,1.435298348766385,2.203757587138011,0.45121484162742553
77,1456704107582467,1.628151137207976,2.1924215242577887,0.5804634318852308
78,1456704107603169,1.799140243911943,2.5011559544597253,0.9242968278725786
79,1456704107619941,1.9403105693752418,3.181654280124722,1.4763699446617495
80,1456704107641941,2.0729038833966236,4.170750881375319,2.1581625543106755
81,1456704107662943,2.242309643298034,5.296136834944402,2.836737853240949
82,1456704107680449,2.494133201448656,6.318358121666517,3.3656374008155896
83,1456704107701965,2.844219961918079,6.992946733849834,3.631991665096566
84,1456704107722972,3.2619073610305684,7.138969270741749,3.5890134928089674
85,1456704107739967,3.675216289347335,6.698566120121893,3.2622932091689143
86,1456704107761970,3.991862519271154,5.763388142287533,2.7338875423552516
87,1456704107783671,4.125506594999642,4.5466349550214975,2.116134042291541
88,1456704107800396,4.021248674651255,3.3061766891375677,1.523971142724517
89,1456704107824187,3.6764865280714862,2.2561772129828235,1.050050490168916
90,1456704107843487,3.149152885929739,1.5105927357037163,0.7469481486304383
91,1456704107860190,2.5442587465903217,1.0772193110531607,0.6209440652857152
92,1456704107882507,1.979443146818903,0.8903127188261555,0.6386691638512317
93,1456704107903697,1.5442919961664832,0.8561062579865709,0.7434650446800443
94,1456704107934762,1.2733798414680444,0.8902158106163003,0.8749340146800141
95,1456704107942471,1.1449725636056671,0.9373972124828858,0.9843825124122285
96,1456704107965472,1.1025264003867215,0.9736589956162321,1.0421245362097644
97,1456704107986499,1.0845114648741614,0.9964441716168354,1.0381641588772945
98,1456704108002691,1.0470279245801266,1.0107769626100003,0.9804564529877539
99,1456704108025691,0.9725504358391555,1.0182704171637758,0.8924723441932815
100,1456704108046511,0.8680855305689099,1.0130290968422015,0.8083149043497899
101,1456704108070511,0.758944665725852,0.9851296237232188,0.7641674693289998
102,1456704108085763,0.6806976734068875,0.9289722174991233,0.7883773141925016
103,1456704108106841,0.6680973666127054,0.8510976873416508,0.8939003127746761
104,1456704108121842,0.7407007544399714,0.7718186700427184,1.0745138546483335
105,1456704108145844,0.8897286141036354,0.7184416188907993,1.303895708275432
106,1456704108166105,1.0743175432515089,0.7132885889067314,1.5377111066331586
107,1456704108182563,1.233111496661335,0.7631212946965108,1.7211241634722236
108,1456704108212069,1.3088897775402133,0.8554380971025778,1.8028616369239314
109,1456704108226103,1.274778922033467,0.9628769288496637,1.7518729168021954
110,1456704108242069,1.1479453747793638,1.052883824016107,1.5690673273004037
111,1456704108265071,0.9832348064610551,1.0979600084914187,1.2883339950286528
112,1456704108286082,0.8499286736814559,1.0824596636894128,0.9661200141328299
113,1456704108302120,0.8026986469785236,1.0045739306725283,0.6636066347902781
114,1456704108325119,0.8600586960939172,0.8753557961726421,0.42843154455981247
115,1456704108349120,0.9998996417161399,0.7176449820908338,0.28326036397126
116,1456704108362330,1.1731006127158907,0.5650292615409955,0.22548276860273564
117,1456704108385501,1.3270846423797755,0.4573925812921825,0.23671632059594985
118,1456704108406274,1.4271631324644978,0.430124626811374,0.2957026330304987
119,1456704108421999,1.466158688692059,0.4994851148780234,0.38690681093609536
120,1456704108447002,1.4593911160602577,0.6518039338601652,0.5007936730004752
121,1456704108466009,1.4295086982132164,0.8438595150783829,0.6278727079535266
122,1456704108489771,1.3909020075354037,1.0160033118437324,0.7526995324598781
123,1456704108505778,1.3432053037672207,1.112862339900325,0.8534438665224328
124,1456704108526116,1.2768045254286235,1.1029175673262934,0.9082324009816424
125,1456704108542780,1.1847141603323565,0.9890492289465019,0.9042903762498803
126,1456704108564784,1.0715928754070867,0.8060953286718161,0.8435563631993045
127,1456704108586575,0.9545891144969815,0.6068575186537014,0.7409331910904182
128,1456704108601870,0.857315083807303,0.4428130024724956,0.6167440112573521
129,1456704108624871,0.8014354153061432,0.34774298843037404,0.4888048512815058
130,1456704108645874,0.7995003246668715,0.33033352229290947,0.36899461496332836
131,1456704108661874,0.8508722445887351,0.37680548008443104,0.2652175734233545
132,1456704108685724,0.9415780300360184,0.4600133991339101,0.18564021290362218
133,1456704108706179,1.0480378176808482,0.550003325498695,0.14117578036155573
134,1456704108721912,1.143286846324583,0.622598705573648,0.14442936881717355
135,1456704108745914,1.2033644822698197,0.6645321313404071,0.20591801173382776
136,1456704108766915,1.2121263752273308,0.674315375586196,0.32924999395268995
137,1456704108782654,1.1642865019846083,0.6587254947053668,0.5066718978275739
138,1456704108805381,1.0672539652739863,0.6269992864350125,0.7164279086083407
139,1456704108826371,0.9418321848202896,0.5871131469543963,0.9237981678861605
140,1456704108842154,0.82111954795501,0.5478931915222879,1.0874008256309904
141,1456704108865160,0.7464129472397543,0.5267383884260687,1.170607101249539
142,1456704108894547,0.758714762304032,0.5582078631069763,1.1551032725495776
143,1456704108902243,0.8859681353985801,0.6964591054652234,1.051224982270935
144,1456704108925245,1.1299433716671747,1.0058149760038637,0.8995903550124406
145,1456704108947247,1.460019837980409,1.5389144002351969,0.7615647093963105
146,1456704108962246,1.82007726795556,2.3097143701043783,0.7008405244709355
147,1456704108985484,2.14804490867977,3.2746590240770765,0.7622627113888082
148,1456704109007688,2.39861810165972,4.333540897436015,0.9551941694989855
149,1456704109022694,2.5557318387909858,5.35035945684552,1.247380902137469
150,1456704109046473,2.6282789135773403,6.181843334976164,1.5723489538667894
151,1456704109067687,2.635423977652858,6.699657895535133,1.8489753555184356
152,1456704109084199,2.5939319032416575,6.8046102790687994,2.00646052053748
153,1456704109105492,2.514097520020444,6.443871755734415,2.0046764529097887
154,1456704109127493,2.4020785377329776,5.63754036397038,1.8426423925294249
155,1456704109144494,2.2639820829171313,4.499898326578896,1.554853402644471
156,1456704109165496,2.109125738036206,3.2285946622800834,1.1995871411080106
157,1456704109187680,1.9509348293830677,2.0515331787856437,0.8430259425826805
158,1456704109208732,1.8040683636569137,1.1531149312848537,0.5424456260159171
159,1456704109225734,1.6783289253166904,0.6178128252714586,0.3328364592710952
160,1456704109246737,1.5731924372816704,0.4175283636356304,0.22123352988147774
161,1456704109267744,1.4778874383040956,0.4431551986938265,0.19021169427717494
162,1456704109285263,1.3785069981874298,0.5594245802471334,0.20831306969804317
163,1456704109306755,1.2680966687657889,0.6557059087211558,0.2427422203221857
164,1456704109328754,1.1533637106111252,0.67382059835265,0.2694377891737835
165,1456704109345600,1.0541141649805401,0.6092159171102179,0.2775572150247952
166,1456704109366602,0.9953534623183806,0.493883524222137,0.2682824079204209
167,1456704109388424,0.9950864500399831,0.3730664594160563,0.2499937123301252
168,1456704109404958,1.0536446126944912,0.285094487704603,0.23252853197180584
169,1456704109426939,1.1509935981812123,0.24920724498471833,0.22280221818505966
170,1456704109455941,1.2542433839973437,0.262611271940943,0.2230106312452419
171,1456704109464976,1.3308841555671653,0.30556496320570586,0.231323332320306
172,1456704109487451,1.3598943082878958,0.3514866095914247,0.24398935703622815
173,1456704109507961,1.3352902172298733,0.3777866809720724,0.25752807074508244
174,1456704109525204,1.2623511359296766,0.37305548373517955,0.27007683282697814
175,1456704109547174,1.1511719544405419,0.3382327469768808,0.28169510867929914
176,1456704109567965,1.0124395128149557,0.2827042466648399,0.29396398561825093
177,1456704109585666,0.8571547223109541,0.21864154926448048,0.30909607277869994
178,1456704109606973,0.6987224718790692,0.15686747216040542,0.32840562642627763
179,1456704109628975,0.5545260115083707,0.10569485601046757,0.3503836461110278
180,1456704109644976,0.4445097087946373,0.07203755087112947,0.36965928752153093
181,1456704109666976,0.38584664081548825,0.06274631839708762,0.3783196637707252
182,1456704109688278,0.3853737934741358,0.08414649099424008,0.36955690257892104
183,1456704109707287,0.4339184697753857,0.13914515527913596,0.34160629603771686
184,1456704109733555,0.5067059364363057,0.2232634204226394,0.29943921454974776
185,1456704109748295,0.571058283988712,0.3221988235896832,0.25317580715952537
186,1456704109765291,0.5985716362561825,0.4130557175933254,0.21419559836124305
187,1456704109787661,0.5766728772049028,0.4695806062576958,0.1908802754810768
188,1456704109810234,0.5148866093014618,0.4700322226255543,0.18572038046218015
189,1456704109825235,0.4432241197869914,0.40554115001571417,0.1948882805180115
190,1456704109847237,0.4026039311441285,0.2865720502751254,0.21065237210441554
191,1456704109876534,0.4298251073589487,0.14502823807379525,0.226020024054735
192,1456704109885035,0.5421082337780168,0.030114956519304348,0.2398412096569512
193,1456704109906551,0.7273967994950682,-0.002351913507035436,0.2599008715744879
194,1456704109929552,0.9451335462385034,0.09452843958529795,0.3018290948191585
195,1456704109945554,1.138330275148336,0.3419567228402704,0.38310411062942357
196,1456704109966553,1.253155867293189,0.7225080723380379,0.513855022682459
197,1456704109990061,1.258789465652236,1.1770380085877659,0.6886732635749919
198,1456704110005576,1.159481718991462,1.6160480702483162,0.8843423452737492
199,1456704110026577,0.9937306555189914,1.9450503901451848,1.0659259333544304
200,1456704110049578,0.8213181529250804,2.095883042607455,1.1989843524005248
201,1456704110065580,0.7041820988213987,2.050817554354082,1.262051632019931
202,1456704110087640,0.6883341600835682,1.8486598011156625,1.2537723220818862
203,1456704110109794,0.7915027151743763,1.571363905284591,1.1926989900799467
204,1456704110125796,0.9982345967891358,1.319015992025862,1.1111991844912514
205,1456704110146799,1.2631721158439215,1.1836953606429303,1.0460505321158902
206,1456704110169058,1.5232363794974009,1.2293351427399783,1.0281339755087582
207,1456704110191230,1.7179992148380443,1.4807101294758238,1.0735505283657305
208,1456704110206525,1.8130762744324629,1.9222310833886964,1.178267304476043
209,1456704110228739,1.8157242063517194,2.5046009666503797,1.3176732612174114
210,1456704110251742,1.7712471270701082,3.154708061666912,1.451678385334574
211,1456704110266528,1.7385699427547054,3.784227338175681,1.5352753714571075
212,1456704110289619,1.7581872336730493,4.296322504368988,1.5326633008088917
213,1456704110311403,1.8319335401776327,4.594920863778716,1.4299718371178083
214,1456704110326404,1.9250389484487127,4.602648030170173,1.2403941721842178
215,1456704110349121,1.9854438760100146,4.28743512168726,0.9991245266392714
216,1456704110371406,1.9670473490213114,3.6855593166358513,0.7513405811442017
217,1456704110386147,1.8467337829180914,2.9021809528618343,0.5389632584361753
218,1456704110409164,1.632396459901317,2.0809887054332785,0.39016158218265085
219,1456704110433160,1.3622330771152027,1.3563426221248154,0.3133940872477111
220,1456704110447162,1.094496307506901,0.8138534799246541,0.297141135926846
221,1456704110469445,0.8881305392028858,0.47731697083763164,0.31575367230134715
222,1456704110491735,0.7804290829393735,0.3207770901216037,0.3397393341433546
223,1456704110506252,0.7722581584785256,0.29159667628721075,0.34648263905909593
224,1456704110529084,0.8288777128877486,0.3311410364997823,0.32691803004558306
225,1456704110550972,0.8961817813226839,0.38799471513560824,0.28581771974306763
226,1456704110565966,0.9240050047340315,0.42509205247457593,0.2367911184271733
227,1456704110589477,0.8850082043198643,0.4231544591043119,0.19543253633724236
228,1456704110611495,0.781178664649112,0.38088861053757,0.17389855095609527
229,1456704110626495,0.6374466683637948,0.31129772914735643,0.1782614245423857
230,1456704110649497,0.4882199308946339,0.23461878253544777,0.2081467260118346
231,1456704110671637,0.3644747517884349,0.17034738344514905,0.25758288345855723
232,1456704110686446,0.2865366087236623,0.13129149560711117,0.31645585540497567
233,1456704110710686,0.2629702696557113,0.12115044008007933,0.3726099775217959
234,1456704110731446,0.2922336292777981,0.13527633665162117,0.414681826627647
235,1456704110746448,0.3636732788619686,0.16349161079586202,0.4349909583176917
236,1456704110769627,0.45764958248053156,0.19402229494940926,0.4310738426839376
237,1456704110791598,0.5474553383856732,0.21770356315639783,0.40499079560141127
238,1456704110806634,0.6052131345254881,0.2311677151123885,0.36124109275914673
239,1456704110828848,0.6106033911112498,0.23758007362944378,0.3051663700101267
240,1456704110851667,0.5582296848286576,0.24456135577461052,0.24291693848133603
241,1456704110865639,0.459482414174354,0.2606225390598344,0.18242746605194227
242,1456704110889699,0.33793559055208755,0.2921294452666106,0.13402327901997424
243,1456704110910747,0.2209097067166257,0.341854407321314,0.10954833050585906
244,1456704110925748,0.13118588080606938,0.4085239213854676,0.11968888612435499
245,1456704110948742,0.08171711587738757,0.4860211715255212,0.17010329811213679
246,1456704110970956,0.07419975115923129,0.5620040989964943,0.2578164913258759
247,1456704110988523,0.10095037659159868,0.6179002337296144,0.36970735351349304
248,1456704111009214,0.14897572735927736,0.6331540331339907,0.48455285560573774
249,1456704111030987,0.2051829388035032,0.5945155478126125,0.578918015372852
250,1456704111047987,0.2618988773290797,0.5073082625826819,0.6353429699144035
251,1456704111069297,0.32161232959121666,0.40312059351592505,0.6497083347211486
252,1456704111091583,0.3989785273246938,0.33890392440726785,0.6346311302687534
253,1456704111107602,0.5175909354953185,0.38506560020358754,0.6171613036311727
254,1456704111128887,0.7002759580366782,0.6034292254129537,0.6305651705145906
255,1456704111151689,0.9551333193195916,1.01988831707785,0.7013478393124263
256,1456704111167663,1.2635357815950272,1.6011438465438752,0.8350602405574258
257,1456704111189896,1.5776283030954368,2.247765587191237,1.007564488763717
258,1456704111211491,1.8314050736262617,2.8128989927887798,1.1689624349308587
259,1456704111228191,1.9624836901217364,3.1453650699966986,1.2620872134551944
260,1456704111249193,1.935494308482814,3.1422160890881448,1.2481314327584863
261,1456704111271406,1.7566415537285809,2.788549571912317,1.1258145475498553
262,1456704111288587,1.4733108914104946,2.167580716350551,0.9333976859954303
263,1456704111309344,1.1596192047924467,1.4379929251567034,0.7329800511468394
264,1456704111331415,0.8941702133722942,0.7889639841481196,0.5861201146813033
265,1456704111347134,0.737801310170866,0.38930574337484775,0.5330016292418476
266,1456704111369136,0.7180957963317927,0.34585894159301356,0.5838945792529486
267,1456704111391375,0.8255158542438373,0.681376781967198,0.7246126777193005
268,1456704111414368,1.0225596204891303,1.33630895341164,0.9304811438792263
269,1456704111429368,1.2620498986845752,2.192631347929537,1.1794807300871846
270,1456704111451369,1.506166445593561,3.1111865986123224,1.4572592373374975
271,1456704111474608,1.737397183391878,3.9684680140112722,1.7531861625956604
272,1456704111489339,1.9569964313947226,4.678201287714605,2.05226781894719
273,1456704111511551,2.173615826901228,5.190531090562425,2.3288228086070624
274,1456704111534594,2.3900137056600017,5.474534391070427,2.5456455597999015
275,1456704111549364,2.5953749155016785,5.500505071736803,2.6598798516006776
276,1456704111571355,2.7657639373786633,5.239586780104354,2.6349152187461318
277,1456704111594546,2.8702507499083043,4.686238945394438,2.4555007734219596
278,1456704111609618,2.8789626242451023,3.88840571930882,2.140040340902036
279,1456704111631514,2.7717268576231624,2.9579042709134686,1.7417452437700638
280,1456704111654329,2.548056521053212,2.0450853189549267,1.334025957515439
281,1456704111669294,2.236433661923435,1.2894636239005661,0.985473005835359
282,1456704111691799,1.8951269856370034,0.775289572830544,0.7376330240352259
283,1456704111713605,1.5970097884600558,0.5138677484278601,0.5968377893087531
284,1456704111728892,1.4012468571706813,0.4546429999771077,0.5416876159553395
285,1456704111751644,1.32659296632446,0.5133353848545935,0.5389017212780655
286,1456704111773615,1.3423481695173394,0.6032768438224146,0.5580168466486565
287,1456704111789133,1.3826132108870497,0.659841986238295,0.5792060528201939
288,1456704111811642,1.3761498886628338,0.6524069745992659,0.5938620549430487
289,1456704111833930,1.2763733816599572,0.5830828152186155,0.6008750411059351
290,1456704111848645,1.0773744642491505,0.4761285084533039,0.6018492930164859
291,1456704111870653,0.8108253255014356,0.36420671303516894,0.5972039382874078
292,1456704111894734,0.5289137755682926,0.2765244171046213,0.5841013470686652
293,1456704111910735,0.28354764048482517,0.23126277272761997,0.5568871157461237
294,1456704111930738,0.1106509177052605,0.2327497590422798,0.5100406738347547
295,1456704111954738,0.02365358079520643,0.2728815539616049,0.4420728717467657
296,1456704111970739,0.015594433057405807,0.33555995315194626,0.3578257709357732
297,1456704111991262,0.06634329973995097,0.40228512252860116,0.2676240175689007
298,1456704112014779,0.15089027828379875,0.4572326161777721,0.18398979651790992
299,1456704112030779,0.24591824654895086,0.4910983800390882,0.11811921367950702
300,1456704112050788,0.3336540332324734,0.5033786403831431,0.07786387743102731
301,1456704112074782,0.40328894200496357,0.5020440590803252,0.06734611832984222
302,1456704112090094,0.4508519955211319,0.4994940847716943,0.08726768283823036
303,1456704112111627,0.4782872710305558,0.5056558135887865,0.13517174561297216
304,1456704112134660,0.491735012439806,0.5215469814314608,0.20558982558304106
305,1456704112150587,0.49853417470389044,0.5370249807572732,0.2902500258005905
306,1456704112170593,0.503332945172618,0.5346152446082842,0.378535270598622
307,1456704112193918,0.5053921965251122,0.4987928265367173,0.4587727090391337
308,1456704112210925,0.49960324215963337,0.4277657396578128,0.5212947786365528
309,1456704112231949,0.48170616591580695,0.34288622640753696,0.5631950550521237
310,1456704112253969,0.45492391462190945,0.2901718270296695,0.5922424838802064
311,1456704112270962,0.43329898899023467,0.3303484622004168,0.626063310305694
312,1456704112292438,0.43826725800653094,0.5182275815682175,0.6849588401534851
313,1456704112313953,0.48903714112583857,0.8771707747881508,0.7812808631490862
314,1456704112331125,0.5914191295995581,1.37805286924803,0.9110501007930442
315,1456704112351147,0.730924387792697,1.93351017189807,1.0525276216546975
316,1456704112376227,0.8739683936782936,2.41547482714096,1.1732999675935665
317,1456704112391164,0.9778549993403742,2.694934220477211,1.2437913607276188
318,1456704112411619,1.0068644075819029,2.6899279969401024,1.2514170408478664
319,1456704112434650,0.9482839537615438,2.399694202422672,1.2075805890534972
320,1456704112450647,0.8206736492125821,1.9076476623167735,1.142395862026372
321,1456704112471546,0.6695369259052573,1.3520513944061943,1.0893586447492185
322,1456704112494483,0.5514492465423674,0.8798786304421631,1.0692421192273416
323,1456704112510649,0.5126615709313784,0.6053058207255891,1.0834072727322286
324,1456704112531615,0.5702851551950323,0.5873130245104848,1.1202990178332033
325,1456704112554609,0.7036231091422888,0.8281840343986143,1.1697254580649181
326,1456704112569498,0.8605084693111188,1.285309368193164,1.234234030350737
327,1456704112591584,0.9787553787141028,1.8868337117622163,1.32922873092195
328,1456704112613612,1.0161747540629442,2.5459703471401687,1.4717147832632205
329,1456704112629613,0.9759348575772486,3.1741988540920913,1.6658683337661901
330,1456704112651628,0.9124466872078959,3.694888534001927,1.8957604173879143
331,1456704112673615,0.9109461305202148,4.055386425557752,2.1294233160837686
332,1456704112690363,1.0485760749015576,4.232029545491325,2.329286215427172
333,1456704112711149,1.3559385149845844,4.224374911962678,2.4607398158745477
334,1456704112734165,1.7979070712372127,4.0424262858538675,2.4957935886822686
335,1456704112749868,2.282051064671667,3.6976280451882544,2.415480322737367
336,1456704112770867,2.6897593617456046,3.206923174211672,2.2151299717896586
337,1456704112794594,2.916397337852126,2.6073396971730705,1.910911335239744
338,1456704112809600,2.9054857121871227,1.9660498768476533,1.5410925961662376
339,1456704112832600,2.665980478737724,1.3714525962159505,1.1576422101026123
340,1456704112854601,2.267595738056817,0.9058268002759957,0.8112974553991269
341,1456704112869603,1.8153803730857196,0.6152685883460154,0.5380138030283336
342,1456704112893560,1.4122872872883463,0.4946873793291518,0.3526482563580229
343,1456704112913953,1.1251138997360788,0.4951849396202879,0.25046438489978096
344,1456704112937097,0.9685581538630851,0.548165728002886,0.21347805999507333
345,1456704112952837,0.9121424234666538,0.5933388886045039,0.2179822257866369
346,1456704112974141,0.9026667662047536,0.5982637508390918,0.24072633716148223
347,1456704112995883,0.8892134554000123,0.5628521663611025,0.26298582201648396
348,1456704113012884,0.840192800612868,0.5096979981171718,0.2730453906772157
349,1456704113034221,0.7486619728379461,0.46701496824659244,0.2676096567153134
350,1456704113057222,0.62821969623255,0.4531098228103234,0.2516346722207967
351,1456704113072887,0.5040270190686421,0.46906820708465014,0.23561259430804107
352,1456704113094388,0.40251826198935364,0.501197159663669,0.23051341032692593
353,1456704113116596,0.3421877871147111,0.5299564721242176,0.24238160217734786
354,1456704113132596,0.3279399129842807,0.5401247041754185,0.26918120936812506
355,1456704113153603,0.35131363377005465,0.5277176276693749,0.3014017676425344
356,1456704113177668,0.3966128519762491,0.5012976118017967,0.32607725635342494
357,1456704113193109,0.4494664842194446,0.47785188210263696,0.3323194282451737
358,1456704113214118,0.5027126319479699,0.475582761251507,0.3158838126888928
359,1456704113237422,0.5566400446028966,0.5066863772468931,0.2808243062718181
360,1456704113253120,0.6147506470146926,0.5723700912894767,0.23767340664982195
361,1456704113274128,0.6786707222458305,0.6610950684516191,0.19914700570676436
362,1456704113296361,0.7450819411381361,0.7501955458355695,0.17527515281437198
363,1456704113313363,0.8052470655740492,0.8105497501929544,0.1697945823427807
364,1456704113336545,0.846373756108465,0.8137276979013817,0.17911706694678434
365,1456704113357364,0.85449275419432,0.7410656359050883,0.19462387054438776
366,1456704113373365,0.8193619338279827,0.5938356158285504,0.20810744917641577
367,1456704113394373,0.741179244896116,0.4021027382465174,0.21861401869029232
368,1456704113416379,0.6363641423558355,0.2274477076687726,0.23738409364442814
369,1456704113432380,0.5377449011254836,0.15417352521429956,0.2872870453040856
370,1456704113453386,0.48598045974996246,0.2672257264558833,0.3949189040307785
371,1456704113477525,0.5139382713042855,0.6216221834932316,0.5771004958874156
372,1456704113493492,0.6308913159814207,1.214011881383384,0.8274836763817162
373,1456704113514589,0.8151514935852485,1.9692403760726656,1.1111518595363121
374,1456704113537616,1.020548276848529,2.751911635650764,1.3731383569533557
375,1456704113552590,1.1952463020737794,3.403690607943451,1.5599064626310402
376,1456704113573879,1.3042878383028926,3.793685019311674,1.6440752077153973
377,1456704113597411,1.3443416241388022,3.859932553255199,1.6382442373076556
378,1456704113612412,1.3429321369754417,3.623302677458011,1.5881928666200398
379,1456704113634577,1.3427733579547767,3.170389864439552,1.5475438239244843
380,1456704113657613,1.37941456779322,2.618556478166125,1.5481384557235776
381,1456704113673535,1.4632669130324611,2.0824219405025763,1.5842500708412417
382,1456704113694212,1.5745197835615086,1.6541849969375493,1.6204179791548246
383,1456704113717609,1.6730727660479454,1.3981754320052322,1.6175218447642141
384,1456704113731493,1.7184619076689998,1.3521921817488376,1.5607349729127162
385,1456704113753500,1.6901345861111259,1.527133826594072,1.473015255712875
386,1456704113777608,1.598449794214316,1.9007976841547205,1.4070841838827246
387,1456704113793663,1.4817169843999778,2.4097275471779773,1.4208312027102992
388,1456704113815793,1.3917832598185018,2.949622553569208,1.5491959939738955
389,1456704113836801,1.375377724729071,3.3928946844799093,1.7860352172809666
390,1456704113852795,1.4581811148175767,3.6212232594836493,2.082894491471154
391,1456704113875796,1.635625530827895,3.5606268045387086,2.362957139925777
392,1456704113897040,1.8722587488636162,3.2049745678547525,2.543484754418695
393,1456704113912810,2.1108092787797434,2.620127232087978,2.560036094724227
394,1456704113935811,2.290382593361549,1.9289445576547068,2.387048998966374
395,1456704113956855,2.368432626722764,1.282791085798188,2.049183905594397
396,1456704113972813,2.3361138442640157,0.8265554190860976,1.617656052715099
397,1456704113995822,2.2178146953304774,0.6631373064826745,1.1891982499862221
398,1456704114017124,2.0549211804167378,0.8235432729102957,0.8532603288015604
399,1456704114040829,1.8839825973188404,1.2513347921606481,0.6609915418134195
400,1456704114055867,1.721771187150647,1.8110820724470105,0.6105078523803888
401,1456704114076868,1.5637846929679262,2.324869996286909,0.6547830249773314
402,1456704114093346,1.3948040018449808,2.6288413887577144,0.7264930788241332
403,1456704114116515,1.2045568684047134,2.629324033328663,0.7663535530817067
404,1456704114137509,0.9993822396931985,2.3343282931219678,0.7423326902189904
405,1456704114159504,0.8034082250326935,1.8459813726600403,0.6543730358438231
406,1456704114176507,0.649466565930673,1.3176871533990457,0.5268323833779877
407,1456704114197573,0.5655787139861924,0.8953394709007487,0.39462860368123487
408,1456704114219574,0.5634855323397279,0.6670326197213502,0.28920984497237445
409,1456704114235575,0.6330829695083299,0.6398949988846915,0.22887442096776528
410,1456704114256825,0.7440781750394595,0.7499966880124358,0.21561564067647948
411,1456704114278583,0.8544905149541298,0.8975155499524899,0.23796110229844766
412,1456704114296084,0.9238076305691053,0.990171568833494,0.27725127468559835
413,1456704114316841,0.9262817504435886,0.9767379170569042,0.3145133056462608
414,1456704114338793,0.8586861903187573,0.8589574254695448,0.33611350738241613
415,1456704114355593,0.7391407870844636,0.6810059891638469,0.33727285410104485
416,1456704114376846,0.5985738124565225,0.5053200251250616,0.3227725808815416
417,1456704114398636,0.4699076229403984,0.38731842504936886,0.3045372770220236
418,1456704114415605,0.37946021066257335,0.3585921072581569,0.2967922949956062
419,1456704114435809,0.3420635243726681,0.4219917020712443,0.3105440661580957
420,1456704114459609,0.3593648284828755,0.5566556743917392,0.34938704121087233
421,1456704114475609,0.42080346072096747,0.7282938250501635,0.4080107517147297
422,1456704114496621,0.5073809140302793,0.9001607058771258,0.47378272586812065
423,1456704114519628,0.5978656533918566,1.0420951830602876,0.5309701561842538
424,1456704114536629,0.675468089946997,1.1368616196062784,0.5666117003415228
425,1456704114557631,0.731941779267371,1.1833971238682226,0.5762878546697837
426,1456704114578918,0.7671435249833971,1.1958997242532916,0.5670930958142959
427,1456704114595143,0.7849111799164856,1.19772333796117,0.5553249357335827
428,1456704114617652,0.7882935989544522,1.2109139764202677,0.5589087408208238
429,1456704114640653,0.7769756561276492,1.2453402106310811,0.5881777420112021
430,1456704114654654,0.748042826952973,1.2935405394710178,0.6404039398748795
431,1456704114677655,0.6996796131354709,1.3357816517317158,0.7015126056743579
432,1456704114698953,0.6360399167216998,1.3534007386245452,0.7536813769736311
433,1456704114714676,0.5700725904348087,1.3413663096367854,0.7835630307913456
434,1456704114737676,0.5211037407919782,1.3106989108716716,0.7861110196363965
435,1456704114759678,0.5069245106091379,1.280165087530536,0.7632559368620379
436,1456704114774679,0.5342395715976367,1.266121811325947,0.7208536935376137
437,1456704114797702,0.5931343383520591,1.2794478083776881,0.667436688596429
438,1456704114818989,0.6592911298686838,1.3297981797500817,0.6147499706492849
439,1456704114834702,0.7035147587251639,1.4300704827070738,0.5771273223567603
440,1456704114857703,0.7043823334429832,1.5949247922083065,0.5677376919287552
441,1456704114878711,0.6583061791531414,1.8331753967947384,0.5931863318686976
442,1456704114895215,0.5822493159568196,2.1377988842329643,0.6499321095945063
443,1456704114917723,0.5074279103204393,2.477811067059051,0.7248977181433091
444,1456704114938726,0.4668605316512758,2.796626534462889,0.8002918742039463
445,1456704114954726,0.48331498315169275,3.021654232099443,0.8610196001761676
446,1456704114978727,0.5639426499126113,3.0854333969193477,0.9019909488663125
447,1456704114998958,0.7029142109021688,2.9495545284510616,0.9313930510365321
448,1456704115014751,0.8871019883507697,2.617988929368883,0.9660462620813367
449,1456704115037752,1.0979546823932993,2.133794872389493,1.0188638240400794
450,1456704115058861,1.3079932352254982,1.5657241287867214,1.085050397307044
451,1456704115075014,1.4782535827279677,0.9955232068485484,1.1375308990673847
452,1456704115097776,1.5646971082093333,0.5104874389932131,1.138520056166411
453,1456704115119063,1.5343545837784447,0.1983278702968821,1.0638031143818487
454,1456704115134781,1.3830308173922645,0.1390521690408057,0.9257556105293154
455,1456704115157781,1.144182068323961,0.39030176071613615,0.7790385076084525
456,1456704115179081,0.8836995070042114,0.9665690178464662,0.7024178625880619
457,1456704115195793,0.682565783138151,1.818763026500982,0.7647348497359908
458,1456704115217801,0.6141894195191419,2.8261922105996478,0.9923251137888282
459,1456704115239097,0.7243030256621799,3.812483646430159,1.354018598356134
460,1456704115254803,1.0193969310456927,4.587124213559298,1.7703043846268902
461,1456704115277804,1.4660773172708268,4.999662011440041,2.140971183680492
462,1456704115299109,1.999638561526615,4.983847421681759,2.377081047020442
463,1456704115314823,2.537213960885358,4.572201982358489,2.4237220608139984
464,1456704115337827,2.991258658471713,3.8777658975065035,2.2688941484136884
465,1456704115358827,3.282707500138913,3.0577360892938157,1.9426308494241287
466,1456704115374845,3.3559097900447377,2.2779373188163854,1.5108628787793428
467,1456704115397840,3.1951685398422742,1.6854703972789566,1.063021514214439
468,1456704115419109,2.8366655885685783,1.3847942297317302,0.6909234563702333
469,1456704115441849,2.3659864614328594,1.4136116023240852,0.4626762306776794
470,1456704115457844,1.89564695474937,1.7255034137599927,0.40190356591693877
471,1456704115479012,1.5285131643687795,2.1927837206669105,0.4819640576739738
472,1456704115502156,1.3239533863482986,2.6381754192481797,0.6379456877664981
473,1456704115518140,1.2836074778206918,2.89038018190142,0.7916002537463978
474,1456704115539442,1.3615478033669839,2.843860893379168,0.8794966221514877
475,1456704115563142,1.4899429776622828,2.495976349902684,0.8734646629029116
476,1456704115578143,1.6059569961721891,1.9423883396705663,0.785416140699204
477,1456704115599161,1.6686311433367633,1.3329593306681657,0.655612078291695
478,1456704115622162,1.6616452600389489,0.8117263936953808,0.5314210707428996
479,1456704115638164,1.58599745350446,0.470617830733257,0.44754847971765865
480,1456704115662163,1.4516189510458233,0.3341352403669682,0.4160127047949129
481,1456704115682184,1.2743356344965067,0.3722496451012928,0.4275209852728115
482,1456704115706196,1.076430257460464,0.525736837764994,0.46032663709584787
483,1456704115721191,0.8842797039941794,0.7285622761840866,0.49079027466849917
484,1456704115742238,0.7205703724007725,0.9212127113766673,0.5013073596870208
485,1456704115758199,0.5960139285267052,1.0575395349250374,0.4840513157184191
486,1456704115781230,0.507251595936745,1.1097483314085825,0.44101817579124414
487,1456704115802413,0.44244262404725965,1.0726906710034114,0.38140391597044104
488,1456704115818251,0.39008851521932575,0.9646127861549142,0.3173570752125744
489,1456704115841256,0.34513897868440124,0.821137056101217,0.25952271239813235
490,1456704115862256,0.30933537063116356,0.6828852656372499,0.21410114315575404
491,1456704115878465,0.28700289582138855,0.5815919318149346,0.1825161980262577
492,1456704115900462,0.28005543988089115,0.5309753422536339,0.16328807695875888
493,1456704115922445,0.2855681695668531,0.5259256545318497,0.15447589893714056
494,1456704115938347,0.2969621549865461,0.5489699755177921,0.1550936529031738
495,1456704115961444,0.3075961982904229,0.5797562013218318,0.1649554579511273
496,1456704115982397,0.3143816540874913,0.6030600803246798,0.1834394529665032
497,1456704115997456,0.31911118073604383,0.6127708975200642,0.20813332901886064
498,1456704116021462,0.3266334774670083,0.6116314758540929,0.23434706789481058
499,1456704116041482,0.34119460530826684,0.6079301606528469,0.25602067057074146
500,1456704116057464,0.3635039904446909,0.6106274770424733,0.2675869260029238
501,1456704116080466,0.39016532934837944,0.624197874373967,0.2656937681522158
502,1456704116101518,0.4149997874291437,0.6447708866626167,0.2502605124263806
503,1456704116117478,0.43082587349406226,0.6599207271858647,0.22539167980654282
504,1456704116140479,0.431262339004572,0.6539750513986793,0.20048136746152972
505,1456704116161516,0.41318966177716937,0.6177367787769873,0.1903528463015138
506,1456704116177481,0.3798374805522135,0.5576861045385393,0.21243332022945358
507,1456704116200501,0.34288847140466777,0.4984001140874913,0.28022120949398815
508,1456704116221507,0.32137731980511386,0.4746039490397088,0.3950749328148958
509,1456704116237503,0.33621285986643085,0.5145849233160721,0.5407163488550376
510,1456704116260504,0.4015977932326195,0.6221567431781259,0.6847956625867355
511,1456704116282060,0.5173965671438177,0.7673188896371474,0.7886208096249469
512,1456704116297561,0.6673675094760907,0.8937351811042732,0.8214393098189212
513,1456704116320567,0.8254196921307749,0.9436012463774445,0.7730089149391224
514,1456704116341831,0.9669379658323611,0.890570187666629,0.6596095962428838
515,1456704116357569,1.0784531793413332,0.7649342326376971,0.5223114596986475
516,1456704116381570,1.1595550448776026,0.6565545562619461,0.4188276808323942
517,1456704116402519,1.2160820746023824,0.6896587790340999,0.4107091943543351
518,1456704116418298,1.2503853215458935,0.9754007561226806,0.5476406645048001
519,1456704116440565,1.2578312691561293,1.5586740789693394,0.8514731298424402
520,1456704116464299,1.2344301128844535,2.381563446999729,1.3042490489360696
521,1456704116478444,1.1902023201217689,3.2832554291769043,1.8457863128679264
522,1456704116499734,1.1555289924976295,4.0433774084978475,2.385190032714616
523,1456704116521776,1.171686534680272,4.4565287998665415,2.8252948781462974
524,1456704116537959,1.2697906053600392,4.409343765739428,3.0916989058606763
525,1456704116559738,1.4523206354726697,3.927120903304562,3.1540448818058726
526,1456704116581776,1.6891623023206126,3.1691135405292634,3.030425933222109
527,1456704116598272,1.928949851878882,2.3746730821904927,2.77494090673896
528,1456704116619780,2.117007232434467,1.7826019687070054,2.4565878480303214
529,1456704116642781,2.2102705988015057,1.5524646817663035,2.1385038687048232
530,1456704116663782,2.1854659632664695,1.7119971565575058,1.8622204825687392
531,1456704116679783,2.042373508280527,2.1475981422552763,1.639395367752742
532,1456704116702814,1.8041495659238371,2.6451659620716192,1.4543331689389976
533,1456704116724005,1.5135089935738153,2.9711235674835113,1.2783073558552551
534,1456704116740045,1.2229275217885662,2.9626032351794582,1.0893429708488176
535,1456704116762814,0.9803221017614018,2.5868036831522185,0.8860535653954285
536,1456704116784238,0.8151032172468203,1.9435096934585998,0.687977598264393
537,1456704116799569,0.7301445419228851,1.2144866864749453,0.5241495925641158
538,1456704116822572,0.7031462351360298,0.588629409880151,0.4179101654375535
539,1456704116843580,0.6970588888241436,0.19747080846920717,0.37594849620463866
540,1456704116859576,0.6752221359116564,0.08332856701170596,0.3859152043485263
541,1456704116883367,0.6148537074241878,0.20378356828419705,0.42262341909198203
542,1456704116904013,0.5138273677696323,0.46195831400812115,0.45915082112442196
543,1456704116919801,0.3893442995130307,0.7463577908147027,0.47718164554298437
544,1456704116950803,0.2705063021668625,0.9657349677263118,0.47186564699755945
545,1456704116964050,0.1881341878088334,1.0699350328974884,0.4498523171140942
546,1456704116979806,0.1648990451669578,1.053694147066589,0.4226924901875376
547,1456704117004609,0.2082004874391753,0.9457584344902759,0.39956231857854174
548,1456704117023616,0.3075090337787725,0.7900970013228016,0.3829193782984675
549,1456704117039611,0.43676544248533355,0.6278152949688967,0.36878738957907425
550,1456704117062613,0.5611252756954971,0.48615268119696636,0.3508265818163576
551,1456704117084193,0.6464414941282597,0.3761433174692356,0.3254774028514257
552,1456704117099927,0.6692910205863437,0.29663220644062865,0.2952126867182884
553,1456704117122928,0.6245787663418293,0.24114753238638337,0.26820312166229565
554,1456704117144213,0.5274705034449724,0.20455244953806026,0.25466323891309495
555,1456704117159932,0.4081230350160511,0.18696429358142044,0.26185806387749055
556,1456704117182931,0.3011037325764696,0.1933093988082331,0.2903806374908055
557,1456704117203454,0.23391013900849092,0.22883935275911216,0.3334947112163289
558,1456704117227449,0.21880811181166632,0.2932917230011635,0.37962487122353505
559,1456704117242450,0.2502589447279138,0.37732794069091347,0.41659505893813015
560,1456704117263452,0.30826219602239974,0.4636209638685586,0.4357580178494019
561,1456704117280455,0.3664370219047409,0.5324537630698386,0.4346094767438627
562,1456704117303403,0.4022453187918394,0.5693406786769473,0.4171391609672375
563,1456704117324404,0.4056153090069698,0.570866680255718,0.39169491165033926
564,1456704117340381,0.38233372697940426,0.5453831982710806,0.3668720272244854
565,1456704117370416,0.35072018939256994,0.5079073404003004,0.34702713250643924
566,1456704117384366,0.333393762922686,0.4723234041353465,0.32972713866910525
567,1456704117399455,0.3480447824454307,0.44582305194056954,0.3069301564814458
568,1456704117422489,0.4007511811929062,0.42868200429398523,0.27001375528242666
569,1456704117443471,0.48370242589001444,0.4184038186936368,0.21677370583790453
570,1456704117459466,0.5778744528929929,0.4141870552604357,0.15712165734737224
571,1456704117483466,0.6601606040389627,0.41801723920530337,0.11410547249173732
572,1456704117507692,0.7128005559689037,0.4321389343288551,0.11844223804034282
573,1456704117519694,0.7311363810737408,0.4559251306810606,0.19756957845722548
574,1456704117542694,0.725511957279948,0.485037612202149,0.36300532269469965
575,1456704117563696,0.71555385456727,0.5128830081317599,0.6012117474700306
576,1456704117579698,0.7192950311262482,0.5322659807804005,0.8724658016832363
577,1456704117602328,0.7431661338479901,0.5359944369733075,1.1195655768747035
578,1456704117625329,0.7789915008086306,0.5177709197411059,1.2845365743841366
579,1456704117647330,0.8099289063170875,0.476093656995942,1.3283424980456533
580,1456704117662368,0.8213760203696522,0.4221008201749913,1.2472257775713909
581,1456704117686316,0.8098239444126134,0.3879188311693156,1.079909002250157
582,1456704117700317,0.7848971886856402,0.42832334815914713,0.9017540213924886
583,1456704117722561,0.7648712352470934,0.6090689405765439,0.8049033855488208
584,1456704117745563,0.7692905847076155,0.9812615477289859,0.8681976388944742
585,1456704117759563,0.812591998159283,1.550125405399075,1.1267334418983168
586,1456704117782565,0.9014128943425209,2.253781655318853,1.5544754710185809
587,1456704117805952,1.036123213376758,2.968363752241372,2.069674131239561
588,1456704117819953,1.2141730698129545,3.5464019661789314,2.561996396510158
589,1456704117842956,1.4313701572384152,3.8771495053955847,2.929112106527663
590,1456704117865956,1.6794421789375757,3.939757361413468,3.1068784498722835
591,1456704117879957,1.9422918170571173,3.8165963389838615,3.0824586999176407
592,1456704117903075,2.194774572214821,3.6521491042474437,2.88877662321032
593,1456704117926076,2.4056036485262826,3.575540962802687,2.5863926623288283
594,1456704117947078,2.543633403875242,3.6305697563188097,2.2419046304903105
595,1456704117963079,2.5865134895305775,3.7549615116604373,1.9099396396654178
596,1456704117986103,2.5300207564975405,3.8194676434233843,1.6221987417768304
597,1456704118007393,2.3932220046348167,3.6998762360726056,1.3849742848619788
598,1456704118023399,2.213155569225259,3.338329292021111,1.185019109656712
599,1456704118046339,2.028596368647279,2.7640161890863135,1.0011375276038683
600,1456704118066348,1.8625159669447697,2.0727752485393127,0.8168264529731507
601,1456704118083394,1.7159270958235504,1.3862723731035969,0.6292600576243552
602,1456704118106327,1.5771076799107027,0.8127749941476115,0.4516272291346126
603,1456704118127395,1.4383424659074504,0.4211574725531533,0.3085636586993587
604,1456704118143102,1.307949479000347,0.23074490631624195,0.2272043121338815
605,1456704118166103,1.2096905893787875,0.21562905988686007,0.2277172745818189
606,1456704118187357,1.1698904629004245,0.3198131954151406,0.316379883512174
607,1456704118202506,1.2001712767736914,0.47728499881239767,0.4825158450686502
608,1456704118225507,1.2863372846729422,0.6302857880916823,0.699657258802802
609,1456704118246509,1.3896944546189842,0.7406405259484008,0.9311572222228883
610,1456704118262509,1.4600552356407417,0.7922816210086058,1.1395476629496548
611,1456704118286304,1.4550972431050542,0.7866857727515582,1.296640349016247
612,1456704118306967,1.3587830685707318,0.7355626442171048,1.3896984453159067
613,1456704118322739,1.1907588927685708,0.655364309110642,1.4204351863087779
614,1456704118344740,1.0008132729843602,0.5655054204402526,1.3980542344028648
615,1456704118367048,0.8491175704726224,0.48849524187482135,1.3318640995584443
616,1456704118382742,0.7809069186773597,0.44853982259945735,1.2292064585520583
617,1456704118411883,0.8082287795649551,0.4666595177030791,1.0996027280114669
618,1456704118426877,0.9086143216899562,0.553297290767156,0.9601905582217815
619,1456704118442877,1.0416044810078646,0.7015321929806171,0.8361018748636255
620,1456704118464879,1.1729040887328852,0.8845676266155802,0.7534534806427651
621,1456704118486885,1.2900514739901674,1.0603239616970375,0.7283401016650931
622,1456704118502891,1.3993934441341405,1.1835518102498066,0.7585998598268857
623,1456704118524892,1.5090379288263904,1.2219488149393707,0.8244578462338942
624,1456704118547894,1.6137954924131765,1.1693501501621568,0.8995125802611594
625,1456704118562894,1.6955184196796882,1.0493213023501058,0.9666306816804408
626,1456704118586091,1.738186489009556,0.9070414249440713,1.0283895040908473
627,1456704118608079,1.744167596012887,0.793015455190989,1.1037256527644708
628,1456704118623067,1.7370585233385192,0.745266288419063,1.2117657859125224
629,1456704118645095,1.747516830985003,0.7765348074032267,1.3536360619882197
630,1456704118667874,1.7922040549734615,0.8707497003509599,1.5050682683472683
631,1456704118682875,1.8617830325906217,0.989420074204734,1.6251136914786064
632,1456704118704669,1.927366550416819,1.0849664047201495,1.6752674932750242
633,1456704118727671,1.9603980177250766,1.1162863890886425,1.6370396648381864
634,1456704118742672,1.9500366804301457,1.0621163001485885,1.5186650236553685
635,1456704118764674,1.9044381608254988,0.9283778793102543,1.3500751002729738
636,1456704118787962,1.8362014099322959,0.7468291525176262,1.1716781444739393
637,1456704118803445,1.7455744197109067,0.565352113609395,1.0225946898557499
638,1456704118824277,1.6168941758710458,0.4337671812903021,0.9309664490316187
639,1456704118847278,1.4333164954983622,0.39008860836038833,0.9075575520338777
640,1456704118862442,1.200215203613941,0.4506075150144399,0.9441191113229657
641,1456704118892290,0.9595586995067993,0.6056385098651119,1.0174576760944247
642,1456704118907797,0.7824709405726012,0.8218808058824296,1.0983439013899097
643,1456704118922798,0.7413180308672123,1.0509386771933376,1.1623518036459544
644,1456704118944800,0.875184956978128,1.2415990500296814,1.1985331368681345
645,1456704118968801,1.1659850011390456,1.3522253142970846,1.2124074550777153
646,1456704118982800,1.5373594147441008,1.3599033023078613,1.2217133471336799
647,1456704119004866,1.8788095801416076,1.2648057640002348,1.2455848397342737
648,1456704119033837,2.0860400338850034,1.0905801061233649,1.2906573418517104
649,1456704119049034,2.099620773494335,0.8819928448849499,1.3412648598165757
650,1456704119065076,1.9239254840529083,0.6986277822957978,1.3617594106283233
651,1456704119088286,1.618601706992846,0.6016727044851015,1.3128410011871254
652,1456704119109552,1.2692773271628088,0.6341060192238617,1.1733857863362327
653,1456704119124552,0.9535867316488542,0.8013059407368746,0.9539807526167552
654,1456704119148555,0.7181045836368866,1.062646173851508,0.6939875498176005
655,1456704119170554,0.5732721251125054,1.34120712825863,0.4456255269957684
656,1456704119184554,0.5032011402080887,1.5504496149123255,0.2561652693376564
657,1456704119208256,0.4818202669270222,1.627945598725831,0.15771640593381303
658,1456704119228990,0.48803485889788395,1.5610954557001857,0.166402629780105
659,1456704119245251,0.5165048438415698,1.3917569721770473,0.2857476102739054
660,1456704119269261,0.5825784379188073,1.196452377817756,0.5076961738835072
661,1456704119289212,0.7193598444695435,1.0514917902423466,0.809084262292075
662,1456704119304223,0.9649418647219631,1.0005308056173645,1.147690877597143
663,1456704119328334,1.341450120695594,1.0407554398257914,1.4652767616066327
664,1456704119349227,1.834181571258463,1.1331287848867146,1.7024077671218925
665,1456704119365228,2.3833280988622163,1.2278537697855978,1.8224072069755444
666,1456704119388171,2.896361890235628,1.2880545255108478,1.8338732115727037
667,1456704119408883,3.277040789845547,1.2988246315760963,1.797945313635685
668,1456704119424668,3.4563032276845482,1.261324275975635,1.8108726818718524
669,1456704119447670,3.4097496392942057,1.1816943001809264,1.9639408928268813
670,1456704119468677,3.156252936542758,1.0649707275506402,2.296805541262291
671,1456704119484672,2.7447427348987827,0.9170676333846703,2.768254934493347
672,1456704119507407,2.241283236051776,0.750565648375802,3.262772536268911
673,1456704119530409,1.721999933051392,0.587700980655703,3.6328464432877072
674,1456704119544410,1.2667725927547364,0.4567514796346068,3.7569344212527764
675,1456704119567410,0.9464188999062837,0.3828752780761805,3.5849222466788615
676,1456704119591342,0.8042951512424629,0.3780752011964894,3.1519194888711497
677,1456704119605075,0.8412513186682339,0.43565882193454275,2.5596793627419063
678,1456704119628079,1.012665305682128,0.5324844911197963,1.9391197074106015
679,1456704119650862,1.2406483701592064,0.6385849255403633,1.4101296904610203
680,1456704119664862,1.4386804339242327,0.7300434270807408,1.0503906562908454
681,1456704119688153,1.5404783942645968,0.7992255424258078,0.8807335688169143
682,1456704119711163,1.5209081649368663,0.8578123785132615,0.8710948217689135
683,1456704119726164,1.3993394971785482,0.9314349377095003,0.9642884418872584
684,1456704119748166,1.2259878982227987,1.047875277013556,1.1055785010245602
685,1456704119771167,1.0610491681819487,1.2229307288916345,1.2622470082067168
686,1456704119792251,0.9567566463038892,1.4493686596553441,1.4242908797800415
687,1456704119807753,0.9462451511514984,1.6944066864216452,1.590306258269936
688,1456704119830755,1.0381523255679137,1.9085144231482327,1.751254971696654
689,1456704119844756,1.2155507496264415,2.0429167074637666,1.8834080785117928
690,1456704119868756,1.4396295556745198,2.067862918183451,1.9532127046957855
691,1456704119890762,1.6591394085437559,1.9829089704074057,1.9288544348126133
692,1456704119904775,1.8245459221857676,1.815255393344415,1.7915453222157098
693,1456704119927776,1.9022048867533803,1.6084956609515564,1.543003971572202
694,1456704119950777,1.8821133756458321,1.407340065987032,1.208693498279699
695,1456704119971779,1.7758392402692684,1.2438574012617207,0.8362979207368187
696,1456704119995986,1.6075721240473455,1.129830663185332,0.48818737313408767
697,1456704120011252,1.405351923128537,1.0578913120382494,0.22824239594105
698,1456704120032244,1.197273376883284,1.0099863855164617,0.10638160071406658
699,1456704120048002,1.010996417841768,0.9675896327804067,0.14557437862912473
700,1456704120071249,0.8712447709211604,0.9178398179234902,0.33526220381134525
701,1456704120092316,0.793166975053313,0.8538552929326504,0.6332920551429397
702,1456704120108166,0.7754888094768734,0.7721238268587145,0.9764735333795883
703,1456704120130938,0.7994302621958795,0.6713146814959345,1.297221653936318
704,1456704120151981,0.8355115123853968,0.5542923403894576,1.5405918000621208
705,1456704120167940,0.8545936783878237,0.43112599077551156,1.6747005530649506
706,1456704120191380,0.8368723803480768,0.3193038190284307,1.6906902142628157
707,1456704120212400,0.7749035822143903,0.2394473178666936,1.5948871965914233
708,1456704120227399,0.6714094989912927,0.20819307491190064,1.4003444217964047
709,1456704120249243,0.5352390965718482,0.23163281878085468,1.1234807243810212
710,1456704120272355,0.3780336953682716,0.30212395080494014,0.7858019441076448
711,1456704120287392,0.21211102996573616,0.3995412431697909,0.4162414305999191
