,timestamp,emg1,emg2,emg3,emg4,emg5,emg6,emg7,emg8
0,1456704146278507,-0.045316634835474795,0.09942018983929748,0.11708393293038397,1.3754156381097706,0.02116578812754036,-0.012809106049171466,-0.18692646572628385,0.0537078653572483
1,1456704146278507,0.4745223269521219,0.6345304512780372,0.8365348578724933,2.0938252321878243,0.18874038133787316,0.12303249330788313,0.13928336196026908,0.2356160808724355
2,1456704146278507,1.0002121003586026,1.167961928143087,1.565429792046531,2.758589266880389,0.35494821077708305,0.25720875431373647,0.4743525627642906,0.4144445437037591
3,1456704146278507,1.5248584060062698,1.6924498526319627,2.2950506831855395,3.3700821819014406,0.5178442013392168,0.3878617088939675,0.8138638793874038,0.588842625392904
4,1456704146280508,2.0417800847178613,2.200990391222258,3.0167957145854216,3.9290532333392307,0.6755704950646676,0.5132517028418944,1.1535004757437388,0.7575571223947906
5,1456704146280508,2.544677897004885,2.6870018640005147,3.7223530099939603,4.436562367988676,0.8263989873559028,0.6318033920766905,1.4891549959784818,0.9194600995106258
6,1456704146283508,3.0277806314934943,3.144471824988815,4.403861804765155,4.893922016844265,0.9687698746899106,0.7421446087239624,1.8170178980421143,1.0735714657316886
7,1456704146283508,3.4859632197143813,3.5680861719820562,5.0540589020919535,5.302646411484067,1.1013252243539675,0.8431371252424017,2.1336440531589473,1.219075895353681
8,1456704146288704,3.9148337317059743,3.9533369937848457,5.666409647265044,5.664409921146706,1.222936744259007,0.9338987492558527,2.4359983198624127,1.3553341580576934
9,1456704146288704,4.310788615528758,4.296606368572074,6.235223189770766,5.981015750741483,1.3327269920724842,1.0138164504965346,2.721481784552021,1.4818891695063539
10,1456704146298721,4.671037831416792,4.595223988341503,6.755751494629717,6.254376000258999,1.4300833190289863,1.082550493406269,2.9879411280290786,1.598467220771839
11,1456704146298721,4.993603110678822,4.847497337998757,7.224270658367354,6.486503425318321,1.514664057245144,1.1400299047471771,3.2336641666805965,1.7049749416309692
12,1456704146303706,5.277293361544643,5.052714080237399,7.638141968394359,6.679514233908157,1.5863968596623241,1.1864399921466795,3.457364892676961,1.801492569158695
13,1456704146303706,5.52166159740763,5.211117216757479,7.995849331084706,6.835640048737931,1.6454695308039466,1.2222028982411364,3.658161324499755,1.8882639859924306
14,1456704146320520,5.726947962614923,5.3238545592548006,8.29700967695558,6.957245907284296,1.6923139841746122,1.2479522627410882,3.8355492824653346,1.9656837847722384
15,1456704146320520,5.8940133856987815,5.392905066972421,8.542353977590901,7.046849891940684,1.7275841312652613,1.2645030830737412,3.989374863553589,2.034281411346482
16,1456704146328221,6.024267920365,5.420985542932493,8.73367836746541,7.107138835915116,1.752128636336375,1.2728179516803897,4.119807933136463,2.094702364911517
17,1456704146328221,6.119597034934486,5.4114417476913665,8.873766909897007,7.140974194385621,1.7669595835206866,1.2739709950603428,4.227318418500436,2.1476865536017185
18,1456704146333915,6.182288250416268,5.368128037385517,8.966289166197772,7.151383433901739,1.7732181609773785,1.269110919411412,4.312656537763145,2.194044198479393
19,1456704146333915,6.2149597575339905,5.295279424379665,9.015676747393512,7.141535089491879,1.7721384523307138,1.2594244975818512,4.376837237072948,2.234630049806699
20,1456704146350000,6.220491918376321,5.197380008888911,9.026983499480284,7.114698627647593,1.765010342988965,1.2461016387408042,4.421128069005925,2.270316964857666
21,1456704146350000,6.201961802920705,5.079032201531392,9.005733893150188,7.0741921137616925,1.7531424155663182,1.23030292727105,4.447038676339155,2.3019699519004164
22,1456704146395725,6.162580259440011,4.94483157707779,8.957763760646348,7.023321385909384,1.7378255857539875,1.2131302395673293,4.456309082755013,2.3304216023132347
23,1456704146395725,6.105630777253026,4.799251983262068,8.889057303872402,6.965314807867619,1.720298204912677,1.1956007896067058,4.450893346013899,2.356449542411558
24,1456704146396725,6.034409661192056,4.6465446204928025,8.805584669065974,6.903258096301116,1.70171345323777,1.1786247814603619,4.432935253365428,2.3807562967010476
25,1456704146396725,5.952167539055087,4.490653606626355,8.713145022402678,6.840033789438466,1.6831099813805568,1.162986804940339,4.404733958385875,2.403951848775256
26,1456704146398725,5.862052698355258,4.33514938957821,8.617220267700011,6.778269184645264,1.6653867935389057,1.1493311791966745,4.368699353669243,2.4265391818627164
27,1456704146398725,5.7670571316594605,4.183180378392828,8.52284402697157,6.7202950705665625,1.6492832284741392,1.1381515422207173,4.327298617717843,2.448903076935787
28,1456704146399724,5.669966451434781,4.037442367357115,8.434489506975142,6.66811572944817,1.6353646209323873,1.1297849991725604,4.282996230330464,2.471302381920059
29,1456704146399724,5.5733149873784225,3.9001647566657947,8.355978652998983,6.623388894678397,1.6240139015166584,1.1244110287947613,4.2381899545790365,2.493865858480553
30,1456704146409010,5.479347430415016,3.77311217019751,8.290413641417237,6.587412979492076,1.6154290969428764,1.1220551435670008,4.195145237873743,2.516591617978394
31,1456704146409010,5.389988394899501,3.6575997178945423,8.240130617631849,6.561118438393224,1.6096264918784742,1.1225970989091751,4.155930556858796,2.5393501450362845
32,1456704146417318,5.306821205413506,3.5545197628916734,8.206675165913936,6.5450610427856555,1.6064491470567737,1.1257833122030296,4.122356566296791,2.561891006069656
33,1456704146417318,5.231076959519522,3.464377614417905,8.19079937906924,6.5394169414561025,1.6055804883094205,1.1312430682563077,4.095922256272082,2.5838534587977335
34,1456704146424319,5.163634397642472,3.3873331522137953,8.192481017804042,6.543981573467174,1.6065626695913726,1.1385080017554052,4.077771259845027,2.604781164757216
35,1456704146424319,5.105030394941472,3.323245188279141,8.210965445710977,6.558175741718909,1.608819294856131,1.1470342342104605,4.068660901652698,2.624141004564076
36,1456704146439527,5.055480157603426,3.2717156157384117,8.244830523749412,6.581062213999551,1.6116818852135673,1.1562264224622116,4.068945803869561,2.641345667503643
37,1456704146439527,5.014905633249107,3.2321311530312746,8.292073605801836,6.611375455161841,1.6144192644781366,1.1654628826933855,4.07857708095614,2.6557793346606644
38,1456704146447528,4.982970324306504,3.2037015043520496,8.350218510339193,6.647565789675708,1.6162688376229415,1.1741208901581413,4.097117356098939,2.666825495082317
39,1456704146447528,4.959118628402621,3.185493586110956,8.41643902391546,6.687857591503957,1.6164685683976694,1.1816011963389468,4.1237709790394215,2.673895782426752
40,1456704146453533,4.942617909908867,3.176461919281572,8.487694145576281,6.73031929843768,1.6142883874843925,1.1873507810116175,4.15742796135319,2.6764586843759335
41,1456704146453533,4.932601514168698,3.175475488510855,8.56086907551221,6.772941556215348,1.609059855896265,1.1908829510052574,4.196719374975411,2.6740670186025812
42,1456704146469527,4.928110769056926,3.1813414426228452,8.632915263713658,6.813718808944225,1.6002031442794014,1.1917941200523545,4.240081378605592,2.666383145601924
43,1456704146469527,4.928133864116765,3.1928259676192483,8.70098292280193,6.850729098491488,1.5872506231243921,1.1897768399675994,4.285824671518626,2.653200954576453
44,1456704146477544,4.931639653619588,3.208672584564721,8.762540150572601,6.882206677922801,1.5698664718875268,1.184628796055913,4.3322060064718855,2.6344637158252104
45,1456704146477544,4.937605044390034,3.227618147567025,8.815473836015668,6.906602506106437,1.5478617589211408,1.1762575584710389,4.37749842732445,2.610277027482086
46,1456704146484528,4.945035564011944,3.2484069622404665,8.85816861343873,6.922629065634847,1.5212045779487393,1.1646810144824202,4.420057114534878,2.580916337576685
47,1456704146484528,4.95297954192196,3.2698036155551407,8.88956140099326,6.929288104477543,1.4900250845427767,1.1500236461536524,4.458378035672659,2.5468287599955
48,1456704146508538,4.960536719100508,3.2906051936495526,8.909170654491172,6.925882111749524,1.4546155003229841,1.1325090790880075,4.491146977773525,2.508628979624687
49,1456704146508538,4.966862149208873,3.309653530453106,8.917101073377196,6.912011753311636,1.4154252163405963,1.1124494977458068,4.517277054028128,2.467089080637621
50,1456704146509529,4.97116637305928,3.325848063056757,8.914025488880112,6.88756184323433,1.3730511180563454,1.0902325954403658,4.535933430648679,2.4231224122801005
51,1456704146509529,4.972713179935541,3.338159854159687,8.901145778139782,6.8526781661975775,1.3282233549275184,1.0663067765776795,4.54654474045304,2.3777621490834
52,1456704146513531,4.97081658714755,3.345647279279194,8.880134259501649,6.80773721717149,1.2817870248122993,1.0411653915548051,4.5488014779756805,2.332135686572188
53,1456704146513531,4.964838728430444,3.3474735853084168,8.853056821467343,6.753310910940427,1.2346804891211642,1.0153308279750226,4.542642664577117,2.287436157327758
54,1456704146529062,4.954190077839876,3.3429260266014356,8.82227956733131,6.690128387388891,1.1879111259527975,0.989339251196289,4.528233057131998,2.2448921989716006
55,1456704146529062,4.9383329411519385,3.3314358232201506,8.790362064937675,6.619036992656665,1.1425292618597753,0.9637266504048012,4.50593383936389,2.205736887528794
56,1456704146537556,4.916788590068578,3.312597962098374,8.759941833279363,6.540964218420908,1.0996009189177343,0.9390166168868253,4.476269928517222,2.1711766147293776
57,1456704146537556,4.889147886871814,3.2861898126848037,8.733615756160187,6.456881850928949,1.060179989662291,0.9157100153591856,4.439896822171587,2.1423606455212236
58,1456704146543563,4.855084732733738,3.2521874578380103,8.7138243235554,6.367773078832387,1.0252805251294814,0.8942764714147754,4.397569456488254,2.1203521078883667
59,1456704146543563,4.81437123494045,3.2107785197325636,8.702744045862168,6.274603174516828,0.9958499042005869,0.8751474288395311,4.350114972983594,2.1061011783323593
60,1456704146559559,4.7668932811430755,3.1623702785359997,8.702192316038325,6.1782946187334025,0.9727436515317938,0.8587104474224182,4.298410644359338,2.100421147077254
61,1456704146559559,4.712665242288963,3.107592181425302,8.713547649252236,6.079707746004307,0.9567025871115677,0.8453044230683299,4.24336750462794,2.103967874424983
62,1456704146567558,4.65184263139192,3.0472923169387505,8.737686915890848,5.9796276985466035,0.9483328970445682,0.8352154993381312,4.185919539585824,2.1172229933483595
63,1456704146567558,4.584731586885686,2.9825278281265137,8.774940237995951,5.878757752541025,0.9480896479893747,0.8286735435222623,4.127017746886534,2.140481146400013
64,1456704146574559,4.511794016583076,2.9145494071111715,8.825063729605949,5.777718371757193,0.9562641907046412,0.8258491357086524,4.067628014864196,2.17384150964525
65,1456704146574559,4.433647205906043,2.844780054936293,8.887230046392398,5.67705092123167,0.9729757807738393,0.8268510846928294,4.00873151066492,2.217203765483806
66,1456704146588847,4.351056812200514,2.774788413882987,8.960036643677727,5.577224766664425,0.9981676043817059,0.8317245623460414,3.9513260223857873,2.2702685320151272
67,1456704146588847,4.264922586432238,2.7062572470766875,9.041531791310343,5.478646398275208,1.0316072541891064,0.8404499982254429,3.8964264765152605,2.332542078839279
68,1456704146596560,4.176256880707331,2.6409479150645363,9.129258772225674,5.381669297198014,1.0728915441887055,0.8529428482986049,3.8450627054479947,2.40334497501484
69,1456704146596560,4.086156837925261,2.58066180753505,9.220318991093698,5.286603543260045,1.1214553754471532,0.8690542644450677,3.7982725496290106,2.4818241184714704
70,1456704146605561,3.995771884823881,2.527199596512102,9.31145446297455,5.193724576214184,1.1765842024752589,0.8885726184323173,3.7570887353995097,2.5669674183928914
71,1456704146605561,3.906268551370547,2.4823190235604584,9.399149187984067,5.103280956986894,1.2374295601253764,0.9112258292043247,3.7225188579342277,2.657620346708218
72,1456704146620355,3.8187946165437134,2.4476918810310386,9.479747551864971,5.0155013236683175,1.3030271137062153,0.9366845022682092,3.6955190759907066,2.75250372179517
73,1456704146620355,3.734444242374302,2.4248609293266186,9.549586424526076,4.930600921280039,1.3723167557311684,0.9645659769434838,3.6769632941272046,2.850232362863244
74,1456704146634864,3.654225355761588,2.41519763495958,9.60513606986889,4.84878808796076,1.4441643387973087,0.9944394524851232,3.6676102235498447,2.9493345201011385
75,1456704146634864,3.579030270926655,2.419861748255384,9.643143366564251,4.770270913334656,1.517384669480868,1.025832397109244,3.6680707464668854,3.048272223830825
76,1456704146635865,3.5096104755504256,2.4397638378982713,9.660769540135998,4.695263955972637,1.5907653852137211,1.0582384142567045,3.6787777674947453,3.145462928503747
77,1456704146635865,3.446556561993794,2.475531949497237,9.655714170705863,4.623994486971677,1.6630913169216386,1.091126647558025,3.6999604748225123,3.239302969456423
78,1456704146648865,3.390284306561217,2.527483531523745,9.626318035701654,4.556707369214865,1.7331689317592363,1.1239526683206302,3.7316246720121904,3.3281933240551598
79,1456704146648865,3.341027742175546,2.5956036654482224,9.571639211906447,4.49366752106065,1.799850450151792,1.1561706213959233,3.7735405376657334,3.410568033380512
80,1456704146656879,3.298839737148188,2.679530509457802,9.491499021161363,4.435159015074866,1.8620572204880048,1.1872462065955536,3.8252388498651575,3.484925452142364
81,1456704146656879,3.2636001751002475,2.778548803494371,9.38649607259733,4.3814802450026376,1.91880191543808,1.2166698600432184,3.886016352205314,3.549862185738195
82,1456704146665867,3.2350313572577196,2.8915922754985375,9.257987864320782,4.332935148665701,1.9692090955226076,1.243969344721604,3.9549504564384175,3.604109085282991
83,1456704146665867,3.21271970652269,3.0172557073675925,9.108040869647018,4.289820944550808,2.012533646929889,1.2687209555808396,4.030922907511921,3.6465680943232175
84,1456704146679865,3.1961423079797493,3.1538171632125267,8.939352037260084,4.252413049504283,2.048176520773199,1.2905587109477312,4.112651545146788,3.6763482472522937
85,1456704146679865,3.1846964084957445,3.299270477788886,8.755146508298123,4.220947869921936,2.075697130180043,1.3091811561304447,4.19872898207484,3.6927988111598173
86,1456704146686866,3.177729853455179,3.4513676155392594,8.559057307982595,4.195604192978537,2.0948217986823243,1.3243556556040803,4.2876668287706465,3.695537449809581
87,1456704146686866,3.174570636535702,3.6076699687329565,8.354992964697889,4.176484051151129,2.1054478295331127,1.3359202637826701,4.377943908718666,3.684471388473016
88,1456704146693871,3.174554215373991,3.7656071574427394,8.14699928054464,4.163594153557497,2.1076430029488735,1.3437834275224503,4.468056623172117,3.6598099235584916
89,1456704146693871,3.177047825113725,3.922541611054695,7.939122113831736,4.156829168149189,2.1016405162906717,1.3479218600215712,4.55656920905421,3.6220672365691464
90,1456704146708872,3.181471558053085,4.075837211714092,7.735278409514202,4.15595823305698,2.087829547827561,1.3483769234524363,4.64216118761281,3.5720551920615953
91,1456704146708872,3.1873164055567864,4.222930347495645,7.539142184136767,4.160616081496591,2.0667417807472876,1.3452497814841493,4.723668977420489,3.5108664623042825
92,1456704146716882,3.194159734688945,4.361401568936227,7.354050766433069,4.170300096576696,2.0390343632535326,1.338695469689348,4.800118484935203,3.4398489138474355
93,1456704146716882,3.2016787472009405,4.4890456000176435,7.182934721810118,4.184374399058172,2.0054698680253016,1.3289159461558757,4.870745489519819,3.36057277782026
94,1456704146726449,3.209662299821616,4.6039369218060395,7.028272875321154,4.202081625527556,1.9668938827335105,1.316152199941599,4.935001081881155,3.274792630122634
95,1456704146726449,3.218021077477098,4.70448781767062,6.8920719198032225,4.222562450242406,1.9242109877112816,1.3006756332699867,4.992540794339928,3.1844064286894436
96,1456704146740092,3.2267956655015055,4.789495759270526,6.775868513525481,4.244882337717968,1.878360028622801,1.2827791176269066,5.043198378698055,3.0914136966327668
97,1456704146740092,3.2361617799815976,4.858177153660848,6.680750758372765,4.268064534912967,1.8302896329131608,1.2627682186915847,5.086947520355601,2.997874491829757
98,1456704146746890,3.246431860634474,4.910184705605711,6.6073954448108845,4.2911277589823795,1.7809347800015125,1.2409530167566618,5.1238560875939845,2.9058702247039925
99,1456704146746890,3.258052286678856,4.945606381426001,6.556117083337946,4.313126363842396,1.731195018677018,1.2176407721670897,5.154037683508103,2.8174668240383656
100,1456704146754088,3.2715955113960087,4.964945553594493,6.526924289670578,4.3331903186399465,1.6819147847015523,1.1931295118230207,5.17760489884706,2.7346803223993033
101,1456704146754088,3.2877464288079237,4.969083980495675,6.5195788783314095,4.350562554191304,1.63386624859669,1.16770251999041,5.194628188482561,2.6594446619931844
102,1456704146771099,3.3072823691034414,4.959231021955017,6.533653577193383,4.364632145154191,1.587735153972552,1.1416237255098396,5.2051037284200845,2.593581334438121
103,1456704146771099,3.33104634447967,4.936863472111125,6.568585577413824,4.37496290874383,1.544110126073977,1.1151340568575423,5.208932902699285,2.5387703215243715
104,1456704146786112,3.3599135805934868,4.903660682814187,6.623724451625832,4.38131781550257,1.5034758965213963,1.0884489118061103,5.205915233841396,2.496521740810072
105,1456704146786112,3.3947519632333254,4.861439445143158,6.698373639982088,4.383680003032222,1.4662107659301202,1.0617568964910233,5.195755589187556,2.468147654917339
106,1456704146788103,3.4363777291067157,4.812092486393513,6.791824820256936,4.382271311546169,1.4325884045651927,1.0352199307166938,5.178085366006266,2.4547337009137804
107,1456704146788103,3.4855084131841316,4.75753348449188,6.903384666465959,4.377569228048948,1.4027838058234121,1.0089747321773375,5.1524961764488175,2.457110606851153
108,1456704146799893,3.5427156196712626,4.699650356446551,7.0323940979559785,4.37032289834213,1.3768829028246015,0.9831356042555941,5.118583435584944,2.4758262742773023
109,1456704146799893,3.6083805517182848,4.640267510899519,7.178240890610711,4.361568408867334,1.354895081779697,0.9577983632799707,5.075996246840092,2.5111196878892796
110,1456704146807109,3.682655371455511,4.581117003464423,7.340367093821997,4.352642942641336,1.3367676323594995,0.9330451587577823,5.024489115480652,2.5628982067783874
111,1456704146807109,3.765433271124422,4.523818147543189,7.518272934969245,4.3451968676847805,1.3224011237769917,0.9089498664451641,4.9639704662205215,2.6307197811993794
112,1456704146814091,3.856329566082376,4.469864977607424,7.7115187125660904,4.3412024999501835,1.3116648176091168,0.885583662592186,4.894543022570732,2.713781501443782
113,1456704146814091,3.954675284419185,4.42062082365085,7.91972538332554,4.342958232299519,1.304411464938169,0.8630203300090822,4.81653214883695,2.8109157542387617
114,1456704146829095,4.059523808476032,4.3773189565640696,8.142573077420412,4.353086857091877,1.300491037261402,0.8413408322484116,4.730500206250337,2.920595165744929
115,1456704146829095,4.169670201089518,4.341067776073549,8.379794923699052,4.374527156681944,1.2997630140647696,0.8206367357777787,4.637247149584226,3.0409474473014853
116,1456704146837460,4.283681958422785,4.312858527605554,8.631161962468168,4.410518098465283,1.3021068614197395,0.8010121601294372,4.537799141856065,3.1697811947329773
117,1456704146837460,4.399939256315961,4.293573343347689,8.896454481116988,4.464575076291291,1.307430412595975,0.7825840908681861,4.433387683988162,3.304623512247996
118,1456704146846318,4.516682542208494,4.283991624412686,9.175416640723311,4.540457496548827,1.3156760394176419,0.7654810802549367,4.3254220625550035,3.4427699129245397
119,1456704146846318,4.632065522347616,4.284793246516152,9.46769463468882,4.642126751100162,1.326824711089079,0.7498405402190849,4.215458105324713,3.5813462577402837
120,1456704146860318,4.744211866296497,4.29655751257037,9.772762465543625,4.773693416288877,1.3408981820774275,0.73580496790721,4.105166175491388,3.7173816063551848
121,1456704146860318,4.851274075646893,4.319757097822426,10.089842194652395,4.93935237714135,1.3579595841993524,0.7235175311448884,3.9963008727020353,3.847889889891054
122,1456704146867421,4.9514929691716265,4.354746582857843,10.417826714162553,5.143304642868814,1.3781126297821953,0.7131174734784221,3.8906741243564626,3.9699574275338363
123,1456704146867421,5.043256165643855,4.401745723504945,10.75521316917996,5.389665375166713,1.4014995075607901,0.7047357605238971,3.790132445085985,4.080832640801759
124,1456704146874455,5.125153743704184,4.460818368540385,11.100054593625593,5.6823593065727405,1.428297415671487,0.6984912871446024,3.696538275941192,4.178013950419906
125,1456704146874455,5.196028854121431,4.531848776440746,11.449936232516256,6.025006607745296,1.4587135479229218,0.6944878334180355,3.6117545909672395,4.259331721633735
126,1456704146889455,5.255020504696933,4.614517815077114,11.801981423213919,6.420803357205059,1.4929782471679758,0.6928118356735437,3.5376314408416927,4.32302012984695
127,1456704146889455,5.301595365036936,4.708281925791149,12.15288985075473,6.872400761611,1.5313360075363807,0.6935309484826392,3.4759928061384624,4.367774978568079
128,1456704146896321,5.335565754304587,4.812357660416682,12.499008616864986,7.381786698126382,1.574034104451362,0.696693312263308,3.4286220277099666,4.392794123821362
129,1456704146896321,5.357092173251599,4.92571412950051,12.836434266801161,7.950172779002321,1.621308883664609,0.702327399954313,3.397244131871228,4.397798446256847
130,1456704146906423,5.366670419853982,5.047075016081526,13.161142154694602,8.577890457854041,1.6733701056675532,0.7104422992447491,3.3835035669570415,4.383032884691093
131,1456704146906423,5.365104835917039,5.174931087625507,13.469138160893545,9.264300554756911,1.7303841135121936,0.7210283066281173,3.38893623442654,4.349248283240368
132,1456704146920268,5.353470186042548,5.307563531337235,13.756626054096063,10.007721249704813,1.7924568537320398,0.7340577680631614,3.4149352664896315,4.297665616290176
133,1456704146920268,5.333065087476685,5.443078032351639,14.020181404197997,10.805379503326442,1.8596178781046429,0.7494861804114779,3.4627108289297848,4.229924893095514
134,1456704146927269,5.30536001306257,5.579449238904596,14.256920891675586,11.653390210767599,1.93180642485187,0.7672536356253785,3.5332452856104095,4.148021799314631
135,1456704146927269,5.2719428310938845,5.71457489474623,14.46465575883602,12.546766792727778,2.0088605830356565,0.7872867172526156,3.6272461225940527,4.054235645792238
136,1456704146934459,5.23446459931927,5.8463382972817755,14.642020644754771,13.479466493727926,2.090510385276224,0.8095009354430566,3.745099820074617,3.9510522955258565
137,1456704146934459,5.194587878711652,5.972676906202275,14.78857307192798,14.444472980918441,2.1763754351103426,0.833803721334903,3.8868302687768606,3.8410855084672937
138,1456704146949308,5.153939327964533,6.091654064127077,14.904862567170108,15.433917855935128,2.2659674322631633,0.8600979228428374,4.052065336347291,3.726999786435573
139,1456704146949308,5.114067949314675,6.201530045798541,14.99247052913407,16.439241769614473,2.358697828475249,0.8882856811598208,4.24001480109904,3.611437506434858
140,1456704146957528,5.076410022998351,6.300828097388918,15.05402233703536,17.451394782995756,2.453890809884528,0.9182725246689916,4.449462230408929,3.4969529082981343
141,1456704146957528,5.0422612785893275,6.388390841419921,15.093172540153837,18.461073639924916,2.5508017015450437,0.9499714833587034,4.678772724700035,3.385955173030789
142,1456704146974310,5.012756200723774,6.463422553858259,15.11456328431528,19.458990425369297,2.648640612594733,0.9833070033963863,4.9259178288521674,3.28066225702924
143,1456704146974310,4.98885386869793,6.525513512660871,15.123756026435336,20.4361634607279,2.7466007110249153,1.0182184365235873,5.188518168586535,3.1830663835040123
144,1456704146980311,4.971329604232694,6.574643928637201,15.127136834355621,21.38421831201513,2.843890028126351,1.0546628966442826,5.463903384007229,3.0949113031331934
145,1456704146980311,4.960771764468854,6.611166858363289,15.131795550068038,22.29568494271492,2.9397652498338576,1.0926173105499155,5.7491877619563505,3.0176808151144288
146,1456704146987311,4.957582989092707,6.635771692786638,15.14537880225996,23.1642762219427,3.0335656564882263,1.1320795072454395,6.0413587077455055,2.9525976881954867
147,1456704146987311,4.961985109445509,6.649431722007307,15.175917035004925,23.985133150563065,3.124745266477017,1.1730681566796781,6.337373918434359,2.9006319344138443
148,1456704147003457,4.9740269874477745,6.653340383469962,15.23162685688533,24.755023370047713,3.2129012690336007,1.2156213206214488,6.634262014603184,2.862517172202099
149,1456704147003457,4.993594937148039,6.648841187361087,15.320691726593925,25.47248115476583,3.297796905784543,1.2597934034845713,6.929220780015098,2.8387735230257043
150,1456704147009449,5.020426017479731,6.637356426819832,15.45102563430978,26.137877829010247,3.3793770362586635,1.3056504147692911,7.2197072183466116,2.8297352093233963
151,1456704147009449,5.054125048033666,6.620319738953002,15.630025757397718,26.75341096830338,3.457774712653561,1.3532636036013128,7.503514228367947,2.835580806538386
152,1456704147017259,5.094186320930442,6.599117105403917,15.864321122294507,27.323000673898317,3.53330725738686,1.4027016127170542,7.7788296961566505,2.856363945915325
153,1456704147017259,5.140020524352509,6.57503985520393,16.15952519556373,27.852084858981268,3.6064607472308983,1.4540213231625938,8.04427524897706,2.8920422724724713
154,1456704147026261,5.190986535072352,6.549251892220084,16.520000996113403,28.347314410913082,3.677862617398104,1.5072576052062674,8.29892370090761,2.942502793052705
155,1456704147026261,5.246426856460029,6.522771945023431,16.9486474173445,28.816160805298406,3.7482431951166175,1.5624123189886403,8.542295940539335,3.007582365152867
156,1456704147040426,5.305704935848006,6.496470231655607,17.44671469944249,29.266458593534228,3.818388038052436,1.6194430885532929,8.774339188756292,3.087082731363055
157,1456704147040426,5.368242479421374,6.471077760363013,18.013655738314757,29.705910833032583,3.889083816252614,1.678252518540668,8.995388879839899,3.1807800122747834
158,1456704147047160,5.433554933507358,6.447205860417491,18.647018955573067,30.141587793719324,3.961061127710281,1.7386785755662497,9.206116099771288,3.2884289259886925
159,1456704147047160,5.501283137283556,6.425373480704476,19.342388369359323,30.579449108308786,4.034938011501181,1.8004868181274392,9.40746230421698,3.4097622360173325
160,1456704147062163,5.5712186322193045,6.406039973503716,20.09337717197859,31.023916956651014,4.111167928109363,1.8633650636385939,9.600563374141153,3.5444860296564826
161,1456704147062163,5.643319583227003,6.389641221874924,20.891681606505387,31.477523433264874,4.189995623526349,1.9269209582625366,9.786665505024668,3.692271396847479
162,1456704147069214,5.71771444023507,6.37662704934531,21.72720099286066,31.940650079605998,4.271423642334285,1.9906827861746645,9.967035510336492,3.852742953864912
163,1456704147069214,5.794691807854709,6.367497813178205,22.5882266338832,32.41137220486118,4.355191368945233,2.0541037350293645,10.142868257746956,4.025464475100577
164,1456704147077505,5.874677087633965,6.3628377327309185,23.46169722946239,32.88541498157295,4.44076747417865,2.116569718683465,10.31519470276465,4.209921717181597
165,1456704147077505,5.958198305943773,6.363341838828708,24.33351233039694,33.35622237148849,4.527355685055866,2.1774107235361044,10.484795007248529,4.405502502300741
166,1456704147087163,6.045844473811815,6.369832866882273,25.188889484304546,33.8151339348533,4.613912972560648,2.2359154644297607,10.65212169019582,4.6114744609511895
167,1456704147087163,6.13821990651702,6.383264581865192,26.012746093305697,34.251658815103276,4.6991785720487345,2.29134888649695,10.817237315170054,4.826961463814214
168,1456704147100467,6.235897544276141,6.404709261693328,26.790084902148667,34.65383120227866,4.781711760035459,2.3429717443820093,10.97977017784829,5.050920318382155
169,1456704147100467,6.339373785801158,6.435329111089111,27.506364085309674,35.008628313521235,4.859936168226592,2.390061222699349,11.138890301532365,5.282119410278312
170,1456704147107504,6.449026901270751,6.4763335413141245,28.147839138044688,35.30243108301716,4.93218869530647,2.431931453858116,11.293307209072104,5.519120697514016
171,1456704147107504,6.565080855851998,6.528925925224751,28.701871235767683,35.52150862115969,4.996771524449744,2.467952876656951,11.441290658372079,5.760266248096167
172,1456704147122178,6.6875762995443795,6.594244357953389,29.15720176094559,35.652508482037945,5.052005948154337,2.4975695819491164,11.580715550767836,6.003670676488432
173,1456704147122178,6.816350340252137,6.673301065176402,29.5041940212327,35.68293516841502,5.096286473611414,2.520314019732269,11.709131875955164,6.24722131015901
174,1456704147129180,6.951026314653866,6.766924419831447,29.735041520795626,35.6015996841458,5.1281332269869395,2.535818683095458,11.823859407515036,6.488588355625324
175,1456704147129180,7.091014134907096,6.8757062540551726,29.843938740267408,35.3990242165574,5.14624033123743,2.5438246717067483,11.922105067442125,6.725247354410038
176,1456704147137216,7.235521089389403,6.999955786086753,29.82720737634588,35.067788883990666,5.149518019499375,2.5441873660433005,12.001098831296218,6.95451561477991
177,1456704147137216,7.383572338914764,7.13966062442103,29.68337117406416,34.602811946728266,5.137126957410116,2.536879729024957,12.058241926518612,7.173603188382394
178,1456704147146189,7.534039854748266,7.29445519000541,29.413176347137558,34.001559667843914,5.108504379544642,2.5219938441459533,12.091258902857618,7.3796776483254405
179,1456704147146189,7.685678203151819,7.463597097516875,29.019558965455296,33.2641850210797,5.063382532374053,2.499741084810855,12.09834325845002,7.569940640758047
180,1456704147160189,7.837165275359301,7.6459519357218575,28.507562152118453,32.393594501902186,5.00179997262975,2.4704508502416958,12.078285507046223,7.741712946969361
181,1456704147160189,7.987145672771658,7.839986389067298,27.884204539946634,31.395440379708134,4.924105593655663,2.434567330584322,12.030573559840592,7.892523515751353
182,1456704147167209,8.134274036582193,8.043769228931701,27.158300423515843,30.278034563168326,4.83095453865499,2.3926435097048295,11.955457907280724,8.020196633190741
183,1456704147167209,8.277255384482531,8.254979746315115,26.34023447284394,29.052182499294926,4.723295066568992,2.3453316733084373,11.853977410408074,8.122930503927499
184,1456704147182196,8.414879749156102,8.47092362877537,25.441699430454996,27.730941399166277,4.602346069322666,2.293370017896728,11.727944600283836,8.199360687355439
185,1456704147182196,8.546049195641702,8.688556966824068,24.475410154032495,26.329313573393666,4.469565881680235,2.2375654375332497,11.579891799790195,8.248603411313749
186,1456704147191191,8.669796453726702,8.904519963669046,23.45480844127722,24.86388916528866,4.326613780531414,2.178773069887852,11.412981309412379,8.270276387237258
187,1456704147191191,8.785295665701517,9.115182693683602,22.39377064819974,23.3524523639755,4.175305914897217,2.1178735874040817,11.230884829193787,8.26449736271477
188,1456704147197191,8.891866918535909,9.316705335204631,21.306326535200835,21.813563499584944,4.017567412874887,2.055749434407399,11.037639408254767,8.231862404610375
189,1456704147197191,8.988977081019135,9.50511448374745,20.20639436864683,20.26612862906454,3.855382296084308,1.9932612298248131,10.837489139500562,8.173406871298383
190,1456704147206218,9.076239645819971,9.676395755994642,19.10753432348399,18.728968833961545,3.690742801290528,1.9312254583572617,10.634722958213684,8.09055280091043
191,1456704147206218,9.15341552592429,9.826601259898036,18.022720280418337,17.22040245672953,3.525599835649787,1.8703944497221865,10.433518837201207,7.985047125454383
192,1456704147220213,9.220415212350627,9.951968734807545,16.96412991408582,15.757853625603609,3.3618164670099127,1.8114395217122012,10.237803299907224,7.858895347732406
193,1456704147220213,9.277300889641014,10.049047419867112,15.942954139561483,14.35749900241262,3.2011263547850186,1.7549380069449803,10.051132812064854,7.71429497533506
194,1456704147227198,9.324285767303408,10.11482429514359,14.96922816010193,13.03396188014052,3.045098712937869,1.7013646581066102,9.876600899022423,7.553572411131387
195,1456704147227198,9.361727570475004,10.14684338919406,14.051686651837668,11.80005938128157,2.8951108008595328,1.6510876314824732,9.716772413196797,7.3791264429454095
196,1456704147242203,9.390113692551823,10.143310307522551,13.197645327784304,10.66660562068237,2.75232823042062,1.6043689216148633,9.573644551620516,7.1933808371685
197,1456704147242203,9.410036407802526,10.103174256315386,12.412910965918822,9.642271800368558,2.617692757639575,1.5613688093769693,9.448632801248861,6.9987474669737075
198,1456704147249203,9.42215771366471,10.026181214971693,11.70172224189702,8.73350296245932,2.4919168437163686,1.5221536363392705,9.342578551352469,6.797599856517918
199,1456704147249203,9.427165135205511,9.912894680559623,11.06672410582243,7.944490026735617,2.3754841702235403,1.486706070487173,9.25577365334631,6.592255450500663
200,1456704147257204,9.425721988104632,9.764683693579777,10.508978373469233,7.277194695023295,2.2686554119241307,1.4549369960944172,9.187996319550006,6.3849638233700325
201,1456704147257204,9.418417353825287,9.583680582403577,10.028012096956518,6.731423952842695,2.17147876651853,1.4266982125129617,9.138552956987715,6.177897549422308
202,1456704147266205,9.40572166279675,9.372712796031122,9.621903219145155,6.304950213699642,2.083804878775197,1.4017952185340512,9.106321770126721,5.9731424430113655
203,1456704147266205,9.387953204043862,9.135214619107366,9.287400813292848,5.993672462058249,2.005305810278219,1.3799994827138828,9.089795962397238,5.772684403956102
204,1456704147280205,9.36525949092687,8.875125365059771,9.020075626272106,5.791812937701895,1.9354975892335284,1.3610597708162016,9.08712684013529,5.578391387754493
205,1456704147280205,9.337615718163349,8.59678038962316,8.814495713671775,5.692142990796623,1.8737656824835944,1.344712302406893,9.09616930861599,5.391990870147413
206,1456704147287206,9.30484081871937,8.304799978547193,8.664421289940284,5.686230843004407,1.8193925935936441,1.3306896903906689,9.114533157064816,5.215044821083133
207,1456704147287206,9.266629920289004,8.003979447761536,8.563012399752525,5.764703181629082,1.771586811289149,1.31872873944236,9.139643019815454,5.048924996776277
208,1456704147304207,9.222600322689832,7.699182299897822,8.503042781026174,5.9175117730285445,1.7295124545893745,1.3085772095135753,9.168808681445519,4.894791292328323
209,1456704147304207,9.172346607572777,7.395237321883587,8.477113240058786,6.134195687333543,1.6923190123508252,1.299999570480701,9.199306013723147,4.75357530787799
210,1456704147309207,9.115499534053301,7.096840118684328,8.477857758434915,6.404129586607754,1.6591704457690448,1.2927816310537492,9.228467420013118,4.625970451027483
211,1456704147309207,9.051783418255969,6.808459714182887,8.4981354629294,6.716749278078484,1.6292726686809431,1.2867338188553499,9.25377929587105,4.512429036160718
212,1456704147317222,8.981067706438857,6.53425145797939,8.531201841243476,7.061747671812815,1.6018982411699207,1.2816928835782957,9.272982749340152,4.413166138619152
213,1456704147317222,8.903409790934786,6.277978306544044,8.570853468220072,7.429237244154858,1.576407193556992,1.277521887850737,9.284172659049373,4.328169526163426
214,1456704147332233,8.819087279117864,6.042943091205323,8.611542166410848,7.8098782928029005,1.5522632186513714,1.2741084875967172,9.285889178572255,4.257214777014701
215,1456704147332233,8.728619009702165,5.831934286673855,8.64845678011782,8.194974633781223,1.5290448219033486,1.271361610465868,9.277195216579663,4.19988453429005
216,1456704147340234,8.63277524841446,5.647187155923623,8.677572945142192,8.576539472936037,1.5064512438693458,1.269206694749422,9.257733491982492,4.155590590320997
217,1456704147340234,8.5325783174679,5.490361273541338,8.695672780043584,8.947334375855549,1.4843030877462247,1.2675797169288483,9.227757784128558,4.123597194097506
218,1456704147347235,8.429295019894338,5.362534499791278,8.700337309974051,9.30088424718202,1.4625377036400948,1.266420368420773,9.188135025900868,4.1030439059973585
219,1456704147347235,8.324421783385183,5.264212558063069,8.689915013498712,9.631471482412374,1.4411995633597583,1.2656649023042077,9.140317542090976,4.092966711693367
220,1456704147362261,8.219663043205665,5.195352504010898,8.663470368629582,9.934113119983882,1.420426089496452,1.2652392853571877,9.086287479803692,4.092316846613732
221,1456704147362261,8.116903440876161,5.15539763207946,8.620716686333449,10.204525679662213,1.4004296385499946,1.265053328557191,9.028477909078216,4.099977554625145
222,1456704147369420,8.018174913797507,5.143320879419558,8.561937772809275,10.439082936323391,1.381476560498094,1.2649964281733874,8.969676875059445,4.1147796161563885
223,1456704147369420,7.925620231851194,5.157673709673147,8.487902966568148,10.63477180667263,1.3638644546919598,1.2649354261423038,8.912921469963996,4.135516897964431
224,1456704147385241,7.841454496786167,5.196637810544899,8.399779835824448,10.789150934785193,1.3478988770583065,1.2647148981256444,8.861388447864766,4.160963328159494
225,1456704147385241,7.7679255495718795,5.2580775876129895,8.299048198412862,10.900315788463764,1.333870775514591,1.2641599277091322,8.818286254559219,4.189892469153228
226,1456704147392421,7.707273552030158,5.339592212587048,8.18741797531559,10.96687320513986,1.3220358191796027,1.2630811704915232,8.786751474746767,4.221100216733025
227,1456704147392421,7.661689480528761,5.438566699911141,8.066751934185433,10.987927107634064,1.312596578504399,1.2612818068457794,8.769751510578757,4.253430207248051
228,1456704147399237,7.633271865559219,5.552221930075321,7.938993394062951,10.96307541737735,1.305688274193863,1.2585658658954042,8.769994968569451,4.2858005040548734
229,1456704147399237,7.623980864911678,5.67766366105028,7.806099065628147,10.892416292350477,1.301368590718623,1.2547473669759972,8.789851197546232,4.317229342055694
230,1456704147408238,7.635588732110901,5.811930535548373,7.669978086665097,10.776560095282365,1.2996118566022041,1.2496597343498403,8.831280095154012,4.346857379536793
231,1456704147408238,7.669625892538409,5.95204097304812,7.532439057410411,10.616642172027781,1.300307709485013,1.243164998560223,8.895772533588964,4.37396420399077
232,1456704147421753,7.727322305562547,6.095038533828743,7.395146933098882,10.414330728218614,1.3032641566773127,1.2351624238648677,8.984300826216119,4.397977731369936
233,1456704147421753,7.809544907165366,6.238034953435996,7.259591095756095,10.171824066655992,1.308214704895579,1.2255963415970448,9.097278095813563,4.41847628428556
234,1456704147429249,7.916733593897722,6.378249923856889,7.127065132927774,9.891832471906493,1.3148290134154708,1.2144630059789328,9.234525666243538,4.4351840757036225
235,1456704147429249,8.048839651010287,6.513047025493044,6.998658096457529,9.577542090213125,1.3227263939382103,1.2018161822290314,9.39524863902921,4.447961332734274
236,1456704147444269,8.20527103335792,6.639965770524452,6.875256458229211,9.232560683660736,1.3314914737311703,1.1877710420778762,9.578021138664697,4.456790410132184
237,1456704147444269,8.384848503072698,6.7567500942457785,6.757555481907268,8.860847434166114,1.3406914277062183,1.172505934324872,9.7807838022616,4.461759078348914
238,1456704147451264,8.585775813956099,6.861373523863904,6.646078075306915,8.466630756404516,1.349894287374449,1.1562617368086758,10.000856580537711,4.46304187618389
239,1456704147451264,8.805626333178152,6.9520606361971975,6.541198529307042,8.054319274197878,1.3586878518187337,1.1393386626338415,10.23496959446329,4.460880228052116
240,1456704147459265,9.041347908896,7.027303577177936,6.443168270988695,7.628411484483661,1.3666986199033437,1.1220905104599945,10.479313828530982,4.455562101647105
241,1456704147459265,9.289287376900438,7.085871833190772,6.352140911670877,7.193409054771694,1.3736100064757544,1.1049164620715493,10.729612412463258,4.44740220530221
242,1456704147474266,9.545235559511317,7.12681355524198,6.268194177881741,6.753737426855548,1.3791790048491095,1.0882506885711631,10.98121260690422,4.436723808444967
243,1456704147474266,9.804492758898789,7.149447760117216,6.191346733054476,6.313675858362006,1.3832504387951532,1.0725501883762516,11.229198229812512,4.423843076938819
244,1456704147483266,10.061953783557746,7.1533484592255085,6.12156865983317,5.877297680953818,1.3857679896967896,1.0582813762977576,11.468521553883237,4.4090564836391835
245,1456704147483266,10.312210860700977,7.138323483890768,6.058785458060438,5.4484207943616765,1.3867813196238692,1.0459059466906486,11.694152197496248,4.392631596919082
246,1456704147488271,10.549672565501426,7.104391706148771,6.00287645197626,5.03056828122866,1.3864488595236029,1.0358664647663258,11.901238213320037,4.374801400893773
247,1456704147488271,10.768696887480258,7.0517622514724385,5.953669147854332,4.626939064197219,1.3850361038303936,1.0285720458582956,12.085271872806954,4.355762108534852
248,1456704147505271,10.963736234744305,6.980818458730261,5.910931239665007,4.240388241503136,1.3829094383650493,1.0243844103908482,12.242250335461547,4.3356741161415195
249,1456704147505271,11.12949129015298,6.892108164880562,5.874361742181194,3.8734160904433717,1.3805256334962925,1.0236045800306457,12.368820423568268,4.314665470932525
250,1456704147512320,11.261069422270321,6.7863406784142875,5.843582382452676,3.528164131348484,1.378417245139469,1.0264605127609543,12.46239747809337,4.292837164780274
251,1456704147512320,11.354142204520894,6.664389774352689,5.818130105466343,3.206416555410818,1.3771743379391355,1.0330960421881088,12.521250172390529,4.2702696656890975
252,1456704147528165,11.405095602599946,6.52730127381463,5.797451379340035,2.9096058020742777,1.3774231767013596,1.0435615643937712,12.544545610997815,4.247030099881509
253,1456704147528165,11.411165351124867,6.376303140404401,5.780898874530499,2.6388217339829163,1.3798027832774897,1.0578069960692873,12.532352263736488,4.223179218555484
254,1456704147529972,11.370549001784834,6.212815368917778,5.767731060424426,2.394824243771851,1.3849404560536278,1.0756775880013336,12.485602402938834,4.198776858812842
255,1456704147529972,11.282485882796308,6.0384563907156314,5.757115351649667,2.178059101049507,1.3934274366530435,1.0969131552292934,12.40601975321916,4.173884516103631
256,1456704147541873,11.147297747857424,5.8550427634914115,5.748135634804704,1.9886765896126322,1.4057958765195235,1.1211511356253516,12.296020810029955,4.148564241326934
257,1456704147541873,10.966386212563199,5.664579878234087,5.739805237454012,1.8265522386011388,1.4224981256097766,1.1479336490929144,12.15859939761976,4.122874037374608
258,1456704147548887,10.74218714013918,5.46924297533736,5.731086469716561,1.6913088202042394,1.443889145861992,1.1767184831812254,11.997203797734178,4.096860579421368
259,1456704147548887,10.47808590856247,5.271349212053758,5.720917519898715,1.5823387357199374,1.4702125804065278,1.2068937262090675,11.815614496154891,4.0705502505015625
260,1456704147564877,10.178300406103835,5.073322432923539,5.708246648124716,1.4988259303715916,1.5015907713161256,1.2377955881427043,11.61782862463551,4.043939553832359
261,1456704147564877,9.847740267277366,4.877652671194455,5.692072547241119,1.4397666270807774,1.538018859552506,1.268728752470684,11.407954917064997,4.01698616854697
262,1456704147572014,9.49185102495146,4.686852446048905,5.671488848574868,1.4039884312829398,1.579362963380011,1.2989883871225612,11.190120667647568,3.9896020892704227
263,1456704147572014,9.116450789665597,4.503411813909193,5.6457303314153,1.3901675884048226,1.6253622472688036,1.3278827494370589,10.968389865757246,3.9616502446117594
264,1456704147588680,8.727565598740881,4.329754002828409,5.614218410750663,1.3968443084790931,1.6756344965823602,1.3547552024123257,10.746689619352592,3.93294573636076
265,1456704147588680,8.331268508722815,4.1681932671871325,5.576603580855927,1.4224362369560435,1.7296846958630652,1.3790044695239536,10.528740755747744,3.9032624315524362
266,1456704147589681,7.933526968102685,4.020896199325115,5.5328022756532045,1.4652504683762335,1.7869160833426563,1.4001021160495666,10.317988856226632,3.872345055549558
267,1456704147589681,7.540062514707463,3.8898470767534503,5.483025002215788,1.5234948769555174,1.8466431427569427,1.417606505325318,10.117533991292177,3.8399261881429125
268,1456704147603046,7.156226068054113,3.7768170677896595,5.427792133464422,1.5952897654694806,1.9081059553061432,1.4311727495248827,9.930059978066271,3.805746772761014
269,1456704147603046,6.786891256965835,3.6833365597330334,5.367934196157262,1.6786808191314082,1.970485341677382,1.4405584244175655,9.757765884739436,3.7695781091601033
270,1456704147608968,6.436367543062152,3.61066976135328,5.3045750701385375,1.771654163758887,2.032918371336917,1.4456250841605356,9.602303567894618,3.7312430396616567
271,1456704147608968,6.108334164604606,3.559791063448645,5.239098465666246,1.8721540663976248,2.094514101404414,1.4463359147873525,9.46472562732176,3.690634238556557
272,1456704147625491,5.805794971423522,3.5313631355085646,5.1730994167388555,1.9781035314152937,2.1543697242908704,1.4427501462060213,9.345448440229601,3.64772796301241
273,1456704147625491,5.531053302458153,3.5257171066927513,5.108323160457148,2.087427759626362,2.211587510601436,1.4350150156199908,9.244234807425414,3.602592081058576
274,1456704147631689,5.285705531260597,3.542835401188047,5.046594147332454,2.1980801751979855,2.265292916432949,1.423356103113872,9.160200135955558,3.555387721345075
275,1456704147631689,5.0706518208266935,3.5823379845799845,4.989738335707608,2.3080704965437917,2.314653952810807,1.4080667667627538,9.091844981899225,3.506364633936542
276,1456704147647698,4.886122707801028,3.643472906604666,4.93950223316553,2.4154941184763628,2.358901482250715,1.3894972423506702,9.037115286810259,3.455851156856648
277,1456704147647698,4.731720085652088,3.7251120189756133,4.897472198641778,2.5185618524272275,2.397349675540278,1.3680438055589326,8.993489954282596,3.404240272180934
278,1456704147649698,4.606470956843584,3.8257527131883413,4.864997348396026,2.615628822301401,2.429415546377426,1.3441382695145419,8.95809363476187,3.351973533915265
279,1456704147649698,4.508892151317219,3.943526613416324,4.8431191390885555,2.7052210494054956,2.454636277534465,1.3182379885196946,8.927830680758335,3.299524671255717
280,1456704147661704,4.437064147856825,4.076216264277831,4.832510424353942,2.786058028140167,2.472682895087375,1.2908163965829789,8.8995341844787,3.247384353085299
281,1456704147661704,4.388712109777855,4.2212807539145825,4.833426534509424,2.857069500693517,2.48336878427925,1.2623539305172826,8.870121959648541,3.1960469757425174
282,1456704147668698,4.361292162804639,4.375890949096783,4.845670680605582,2.917404867361086,2.4866517859304813,1.2333290823340826,8.836749579808112,3.1459996572509126
283,1456704147668698,4.352080732426497,4.536974788739486,4.868575668841189,2.9664343741711954,2.4826293139567146,1.2042093942009717,8.796949610650396,3.0977131702083227
284,1456704147684985,4.358264366997836,4.701272870242931,4.901003478367333,3.0037423116112443,2.471526922756569,1.1754424190656256,8.748746618953327,3.0516343980810703
285,1456704147684985,4.377026992096859,4.8654041598179765,4.941363652192644,3.0291135472891058,2.45368163739071,1.1474468940710247,8.690739854372111,3.0081798954680696
286,1456704147692035,4.405631275591506,5.025940957308235,4.987650651495673,3.0425153750934486,2.429521846858895,1.1206045066347667,8.622149396744149,2.9677300704585314
287,1456704147692035,4.441491015395179,5.179491308729916,5.037499402346098,3.0440767570503913,2.3995456287843715,1.0952526442793316,8.542825989029428,2.9306233457907322
288,1456704147707989,4.482232129784049,5.32278600095838,5.088257352116112,3.034066749241959,2.3642991873032018,1.071678443387838,8.453228444812014,2.8971495314774205
289,1456704147707989,4.5257405494212355,5.452766299186213,5.137070582685651,3.012873515199356,2.3243567953051496,1.050114351420411,8.354374581671387,2.86754176772242
290,1456704147709737,4.57019582149252,5.5666680340780585,5.180981048525624,2.980984984317946,2.2803032675811643,1.0307353395523216,8.247772181838227,2.8419669223202746
291,1456704147709737,4.6140897122429685,5.662097708922667,5.217031845863841,2.9389718918538144,2.2327195473002566,1.0136578679155281,8.135336332743474,2.8205151475394072
292,1456704147723214,4.6562298412502345,5.737096774212231,5.242377290378412,2.8874735676361087,2.182171533873217,0.998940705507326,8.019299273650375,2.8031900375818113
293,1456704147723214,4.6957293728037355,5.7901907782274975,5.254394114286518,2.827186430262144,2.129201939325195,0.9865876932097951,7.902118512783959,2.7899011278408525
294,1456704147729214,4.731984743138311,5.820420794545991,5.250789312064358,2.75885482380578,2.0743248140833437,0.9765524509829175,7.786388232563708,2.7804603003133734
295,1456704147729214,4.764644155924059,5.827355698314761,5.229699590389071,2.6832637190703177,2.018022392765876,0.9687448687977962,7.674757967564197,2.774583185671471
296,1456704147744729,4.793570091801896,5.811085530992493,5.189777562021155,2.601232805528485,1.9607439289379227,0.9630390551235423,7.569861435401747,2.7718960520205274
297,1456704147744729,4.818799224612181,5.772197793821934,5.130260756016375,2.5136114235010307,1.9029061093134811,0.959282308314357,7.474257116283474,2.771948042394482
298,1456704147753722,4.840502813880826,5.711739464975592,5.051020626034994,2.421273620604749,1.8448945278495699,0.9573046189136798,7.390380482741235,2.774228036854054
299,1456704147753722,4.858949952890247,5.631167847442999,4.952589525952382,2.3251125998166517,1.7870656955093072,0.9569281646081602,7.320505854457328,2.778184924547985
300,1456704147767723,4.874475207325619,5.532293396641902,4.836164170543441,2.2260341162456645,1.7297491895529913,0.9579762239411069,7.266714318499248,2.7832497375454097
301,1456704147767723,4.887451367915751,5.417217624978993,4.703584890179221,2.124948828053565,1.6732497259219132,0.960280963946134,7.230863615846089,2.788858039900494
302,1456704147769724,4.898267431630704,5.288268965007195,4.557291280758533,2.022763941159633,1.6178490908606422,0.9636896975563749,7.214556528744855,2.7944713199103437
303,1456704147769724,4.9073116313282465,5.147939076008782,4.400256322916142,1.9203745980547073,1.5638079534553144,0.9680694378210352,7.219105822492472,2.799596863260664
304,1456704147782729,4.9149592990591175,4.998821575287389,4.235902163468651,1.8186554333482527,1.511367591392819,0.9733098163583596,7.245495699884277,2.8038063490894185
305,1456704147782729,4.921565419318256,4.843554625507661,4.068001381109554,1.7184526521826342,1.4607515327970846,0.9793246088658928,7.29434161479879,2.80675379007313
306,1456704147788724,4.927461803271239,4.684768354215567,3.9005679521661203,1.6205768999806363,1.412167101049924,0.9860522019374561,7.3658518708038905,2.8081933023652783
307,1456704147788724,4.932958822850641,4.525037932470496,3.7377424276836457,1.5257970965080079,1.3658068663435985,0.9934553559528747,7.4597953359919265,2.807996742196125
308,1456704147804937,4.9383515101604,4.366843252353578,3.5836758697559947,1.4348353594696421,1.321850035995583,1.0015205715832536,7.575479567614286,2.8061707323070357
309,1456704147804937,4.9439295687778415,4.212536162662768,3.4424167066862186,1.34836315803556,1.2804638299336908,1.0102572566698056,7.711742798225313,2.802872130070125
310,1456704147811978,4.9499905337973935,4.064315906146573,3.3178039135286848,1.2669988418400533,1.2418048806368902,1.019696756468557,7.866961969114307,2.798420555181361
311,1456704147811978,4.9568549519296745,3.924212841825992,3.213369028327402,1.1913066049254768,1.206020671566128,1.0298912165695446,8.039077607194569,2.793306178323491
312,1456704147829931,4.964882012589307,3.7940799280321675,3.1322486948800616,1.1217967754182534,1.1732509826577209,1.040912216992763,8.22563506600174,2.7881906548479014
313,1456704147829931,4.9744836438575755,3.675590904208085,3.0771088147554844,1.0589271611610431,1.1436292319106784,1.0528491018766566,8.42384070343923,2.783899128830067
314,1456704147831932,4.986134841874193,3.5702437064304466,3.0500810401236986,1.0031050994771644,1.117283484378661,1.0658068779144632,8.630630953864182,2.781401893966266
315,1456704147831932,5.000378032204961,3.4793673810732,3.0527122112563636,0.9546898425088374,1.0943367881371049,1.0799034880493728,8.842751714722821,2.7817855037821895
316,1456704147843143,5.017819618016747,3.4041305452469564,3.0859273252669728,0.9139949097950237,1.07490648052693,1.095266265736102,9.056844779729584,2.786214435685362
317,1456704147843143,5.039117513549917,3.3455492412952386,3.1500065834882496,0.8812900392587576,1.0591022419892133,1.1120274706741438,9.269537267307772,2.7958854105325828
318,1456704147848938,5.064959312330412,3.304491948282623,3.244576971790592,0.8568023697475057,1.0470229051807236,1.130318930305019,9.477529324460386,2.8119770517833262
319,1456704147848938,5.096031786058432,3.281679769603018,3.368618740943763,0.8407164766370332,1.0387522362189703,1.150265869044529,9.677674988551612,2.8355978464692932
320,1456704147864939,5.132983551413359,3.2776805865866314,3.5204870614267643,0.8331728404323728,1.034354022206994,1.1719799826613333,9.867051186213274,2.867735401869589
321,1456704147864939,5.176383624200936,3.292897135152113,3.6979489046666254,0.8342643020075041,1.0338668334079215,1.195551787252838,10.043010842479077,2.909209762663386
322,1456704147871940,5.2266788917589615,3.3275501429384837,3.89823476543831,0.8440301473155046,1.0372988173877569,1.2210423430531343,10.20321813567661,2.9606331313729495
323,1456704147871940,5.284153320737416,3.381658570844065,4.118104224938298,0.8624477200095187,1.0446228478525807,1.2484746431662823,10.345666475381035,3.022377863830742
324,1456704147888134,5.3488912217577695,3.4550195892069024,4.3539236651048405,0.8894218073303257,1.05577229114134,1.277825165730686,10.468681776049584,3.0945541482328496
325,1456704147888134,5.4207463175243396,3.547191157174976,4.601753808759652,0.9247723437271973,1.0706375631065779,1.309016189627252,10.570914598498364,3.176998253135166
326,1456704147894155,5.499317860455608,3.657479887316378,4.857444278070415,0.9682211514137457,1.0890635421981327,1.3419094453019709,10.651325106924354,3.2692715916343786
327,1456704147894155,5.583934700651597,3.784936312546223,5.116732084888092,1.0193784999393631,1.1108478131741784,1.3763015778814138,10.709164860166918,3.3706701505877965
328,1456704147903145,5.67364798358137,3.9283589014766593,5.375340974171914,1.0777302474573836,1.1357396707401053,1.4119217836801612,10.743958990214276,3.4802431916162337
329,1456704147903145,5.767233045024797,4.086307313005571,5.629078904781502,1.142626243423548,1.163439829269418,1.4484318473146234,10.75549114767036,3.5968196488271333
330,1456704147909156,5.863201103412551,4.2571244688382315,5.873931464863939,1.2132705645215376,1.1936008612421627,1.4854286708405786,10.743792152698248,3.71904038986211
331,1456704147909156,5.959821390563217,4.438966116074503,6.106149264856479,1.2887140781595166,1.2258284916746798,1.5224492692837177,10.709132210589566,3.8453944816655317
332,1456704147925393,6.055154094937523,4.629835850092972,6.322327176886722,1.3678498234064715,1.2596839488566869,1.5589781035060553,10.652016008952799,3.9742577535672177
333,1456704147925393,6.147093758445979,4.827623329294463,6.519472992738072,1.4494117815167844,1.2946875733098873,1.5944565307187986,10.573179807935018,4.103932157462294
334,1456704147932183,6.23342171566364,5.030143677546007,6.695063046076039,1.5319777453580186,1.3303238379635391,1.6282940986116987,10.473589665629634,4.232684583121431
335,1456704147932183,6.311865112775957,5.235176466834027,6.847082744559758,1.6139771119694266,1.3660478792027417,1.659881401670593,10.354440212318517,4.358783916076628
336,1456704147948191,6.3801594286931715,5.440502750739579,6.974050775376871,1.6937044370985523,1.4012935885135962,1.6886042328938808,10.217153642735534,4.4805353390965506
337,1456704147948191,6.4361116067395,5.643938444682175,7.07502691406293,1.7693394721239808,1.4354832277997513,1.7138587485601144,10.063378396472547,4.596311270357508
338,1456704147950193,6.477661703006966,5.84336247524756,7.149604595246864,1.8389741749282693,1.4680383731105755,1.7350672652067325,9.89498626891038,4.704578919719966
339,1456704147950193,6.5029416266011735,6.036738838015246,7.197890248781187,1.9006469036521483,1.4983917927833252,1.7516941429365391,9.714065953985155,4.803925076683671
340,1456704147962192,6.51032962844079,6.222132643081537,7.220471705379756,1.9523837154979597,1.525999717839803,1.7632610941191986,9.522910910117064,4.893079103626732
341,1456704147962192,6.4984990312930115,6.3977209151676115,7.218378021002405,1.9922464121621832,1.5503539387296832,1.7693613030307196,9.324000076467286,4.97093501666087
342,1456704147971192,6.466459834171654,6.561799373503976,7.193033211220661,2.018386680158001,1.5709932610528317,1.7696719386796196,9.119970876076167,5.036573139084099
343,1456704147971192,6.413592294678688,6.712786936081055,7.146206647721897,2.0291053626181954,1.5875140107794927,1.763964885224732,8.91358471920327,5.089281318165271
344,1456704147985494,6.339672036408557,6.84923025648444,7.079962942856675,2.0229155949022193,1.5995794301684851,1.7521157013686834,8.707685916876274,5.128575118175448
345,1456704147985494,6.244886394574227,6.969810846511395,6.996613753768889,1.9986082774926717,1.6069279167408188,1.7341108871182307,8.505155597557788,5.1542156856474906
346,1456704147992196,6.129841575560714,7.073356992614815,6.898673173496668,1.9553181819508827,1.6093801169910107,1.7100534479954659,8.308862560770507,5.166223213702994
347,1456704147992196,5.995559904884731,7.158861810907412,6.7888176172662185,1.892588894230726,1.6068448694058304,1.6801665191951407,8.121612648990295,5.164883336723055
348,1456704148008195,5.843466250761143,7.225507644720008,6.669850534164743,1.8104347334665507,1.599323878865103,1.6447945439242282,7.946097335898708,5.1507436708884455
349,1456704148008195,5.67536295257706,7.272695767113286,6.544671703688403,1.7093976876170491,1.586914841961177,1.604401350434306,7.784841431678234,5.124598417198941
350,1456704148010195,5.493393412055558,7.300079113329626,6.41625013907541,1.5905973454627038,1.569812643384722,1.5595645618427272,7.640149661491411,5.087460560514876
351,1456704148010195,5.299995690617914,7.3075946548181445,6.28759880817895,1.4557718897957204,1.548308303020526,1.5109660857860083,7.51405256768867,5.040523291347344
352,1456704148022212,5.097848437855159,7.295491245889926,6.161748828055733,1.3073084200723526,1.52278556617198,1.4593788331811233,7.408253539217003,4.985114067753814
353,1456704148022212,4.889811847334424,7.2643486809598805,6.041720901975774,1.1482610431782396,1.4937152956136996,1.4056501715530256,7.324080266845339,4.922645669012613
354,1456704148031213,4.678866183408942,7.215084646149787,5.930492669360535,0.9823552505460097,1.4616480290002987,1.3506828633892454,7.262444812536321,4.854568598268035
355,1456704148031213,4.468050083438826,7.148948121960315,5.830961866884557,0.8139772134932921,1.4272051509868133,1.2954143624119883,7.22381628311617,4.782328494354498
356,1456704148045487,4.260400511406547,7.067499755214004,5.745906139324892,0.6481469234368653,1.3910691152934591,1.2407953600362707,7.208209020486015,4.707331118768359
357,1456704148045487,4.05889588874982,6.972580821804749,5.677940931503626,0.49047455500498227,1.3539730956927132,1.187768431350409,7.215187899121916,4.630916271180933
358,1456704148052221,3.866403459787569,6.866272549323152,5.629477464445735,0.34709988613598686,1.3166903871545947,1.1372475623143474,7.243891203605994,4.554340842498351
359,1456704148052221,3.6856314097920917,6.750847415051695,5.602683362032556,0.22461501906178397,1.2800238286964793,1.0900992639873455,7.293070630883988,4.478770261111968
360,1456704148068223,3.5190858773550704,6.628714040391206,5.599448703083958,0.12997110115359883,1.2447954772381875,1.0471258917579171,7.361147001051079,4.405276948945845
361,1456704148068223,3.3690329960145595,6.502357462183693,5.621359918251525,0.07037026349409081,1.2118367150741485,1.009051669419586,7.446279215966206,4.334844127677195
362,1456704148070223,3.2374664082065654,6.3742768564995105,5.669683118610533,0.05314444635225161,1.1819788916085552,0.976511753699783,7.546443084906631,4.268373306498538
363,1456704148070223,3.1260810544677216,6.246923250550809,5.7453573279374766,0.08562307049869594,1.1560444620699881,0.9500444791176721,7.659516117729022,4.206693912175745
364,1456704148082485,3.036254211695011,6.122640164661459,5.848996903624506,0.17499169532729109,1.134838416320179,0.9300867443434943,7.783364355484445,4.150573715771641
365,1456704148082485,2.969034619209626,6.003610111914724,5.980901426370573,0.32814398539204553,1.1191396614082945,0.9169723822656664,7.915927596054241,4.100728912210499
366,1456704148091228,2.925140087752239,5.8918093370282865,6.1410707531793145,0.5515295574835029,1.1096920152747098,0.9109332904270504,8.055299879990004,4.057832894788259
367,1456704148091228,2.904963355528829,5.788972362438493,6.32922284904728,0.8510006296393018,1.1071946075945243,0.9121030444718203,8.19980297234305,4.022522976532597
368,1456704148105488,2.908585331432995,5.696567171751953,6.544812354216876,1.231660814505926,1.1122916830396006,0.9205226559205422,8.34805169552821,3.995404554398197
369,1456704148105488,2.935794364348841,5.615781298542886,6.787048421001439,1.6977198045749633,1.125561932100603,0.9361480882832225,8.49901071369737,3.977052369153387
370,1456704148112225,2.986109779910778,5.5475185961671505,7.054910962455978,2.252357982701514,1.1475074740092286,0.9588591245993342,8.652042279751042,3.9680084157172995
371,1456704148112225,3.058807631155818,5.492405976869165,7.3471650008680465,2.8976050923152488,1.1785425377954075,0.9884691578087684,8.806943753452957,3.9687757637712746
372,1456704148128251,3.1529465340439664,5.450808957873842,7.662373321225009,3.6342370089470672,1.2189818321711983,1.0247354257988466,8.963972907293934,3.97980748526169
373,1456704148128251,3.267391698009312,5.4228544753492525,7.998908049389663,4.461694409105104,1.2690286305526826,1.0673691549031954,9.12385842354669,4.001490483649155
374,1456704148130252,3.400835785704877,5.408459149747645,8.354961888469893,5.378026826193647,1.3287627432204316,1.116045052751234,9.287792497756078,4.0341251247716565
375,1456704148130252,3.55181595351632,5.407361023857762,8.728559599520839,6.37986532624671,1.3981287880046254,1.1704096109067197,9.457402099754928,4.077902515812615
376,1456704148142260,3.718727179957858,5.419152778497622,9.117570188612664,7.46242681067103,1.4769254445391649,1.2300877059080884,9.634695540120692,4.132881614257698
377,1456704148142260,3.8998325731183,5.443314688281825,9.519720243410795,8.619552516555174,1.5647965868204585,1.2946870200304579,9.821981876683337,4.198968158222366
378,1456704148150260,4.093271670088319,5.479246202679304,9.93260876126785,9.843782364700415,1.661225244783316,1.3637999097844116,10.021762231892778,4.275896959414343
379,1456704148150260,4.297067866243369,5.526295783227168,10.353723567803515,11.126465356510005,1.7655312290883114,1.4370025958534711,10.236594032269085,4.36321856584226
380,1456704148164266,4.5091361041710885,5.58378903840887,10.7804592597448,12.457904348087695,1.8768730327705465,1.5138518806075323,10.468931701108096,4.4602908503866905
381,1456704148164266,4.7272918816475,5.651055099885503,11.210136705063787,13.827531274914678,1.994254388182993,1.593879884984521,10.720950485814994,4.566275887360937
382,1456704148171262,4.949262658850466,5.727450830976442,11.640024270566382,15.224106385641251,2.1165356421700254,1.676587469827815,10.994363060964584,4.680142568147885
383,1456704148171262,5.172702921746335,5.812382136330319,12.067360522725883,16.635932804853972,2.2424499124536736,1.7614371167460692,11.290240196274047,4.800675595890234
384,1456704148187267,5.395214328788936,5.905321333280476,12.489376794973976,18.051076552485675,2.3706238144384115,1.847846160328436,11.60884676409717,4.92649153991483
385,1456704148187267,5.61437231837442,6.0058190605684745,12.903316234072042,19.457582214495712,2.4996024077828993,1.935181391508187,11.949503176390497,5.056062406633971
386,1456704148189262,5.827760205038989,6.113508563262496,13.306445025433936,20.843675039629453,2.6278778689569675,2.02275612628073,12.310480738771824,5.187746744306643
387,1456704148189262,6.033011175098222,6.228099837440584,13.69605263200477,22.19794056712871,2.7539211930135603,2.10983077033541,12.688937915602079,5.319827764380574
388,1456704148201263,6.227857809666354,6.349361592541616,14.069441007742514,23.509473596027835,2.8762159502768028,2.1956176592007104,13.080903133915177,5.450557499947919
389,1456704148201263,6.410187978019777,6.477090367826867,14.423906368854906,24.76799094251756,2.9932928247215242,2.2792905260952097,13.481308168422807,5.578205798715588
390,1456704148210263,6.5781052885583,6.611067879401207,14.756719457900028,25.963906968569404,3.1037634531574367,2.3599984105190956,13.884074050964793,5.701112928213513
391,1456704148210263,6.729991759494754,6.751009208873547,15.065110583159186,27.08837488693446,3.206352087366556,2.436883285454552,14.282248768326463,5.817744535714033
392,1456704148224814,6.864569896703414,6.896505698058609,15.346264428617461,28.133298577039238,3.2999238290145154,2.509100305762101,14.668192924561856,5.926747608930804
393,1456704148224814,6.980960906009528,7.046967513221059,15.597327568849034,29.09132034740731,3.3835085195587538,2.575839473623342,15.033806465200215,6.027006090894208
394,1456704148232280,7.078735330217827,7.201571573830747,15.815429841990719,29.955791794642586,3.456319679452372,2.6363476210172014,15.370786907781122,6.117694867648249
395,1456704148232280,7.1579519422651865,7.359220441133103,15.99772002113605,30.72073731391868,3.517768125543246,2.689949724019828,15.670907467936777,6.198330650720315
396,1456704148248391,7.219180261580923,7.518516668784139,16.14141624810611,31.380820932506506,3.567470026949555,2.736068533312042,15.926302101461278,6.268817697776174
397,1456704148248391,7.263502013584346,7.677755369456077,16.243871234868617,31.931325907792335,3.605249218168072,2.7742413685139864,16.129743966061014,6.329485625007484
398,1456704148254285,7.2924879850923805,7.834935850885663,16.302650718816693,32.368153617599454,3.6311336750740804,2.8041328787833053,16.274904261916156,6.381116016310679
399,1456704148254285,7.30814930585862,7.987791432992019,16.315621709408795,32.68784499173182,3.6453462527315357,2.825542795382662,16.356579918166616,6.424954062185304
400,1456704148262285,7.312865321652376,8.133835090141034,16.28104547999424,32.887624754828735,3.648290077277777,2.8384081982382137,16.37088114208749,6.462701056498065
401,1456704148262285,7.309292559562321,8.270417508813184,16.1976692485989,32.96546585021113,3.640529313406021,2.842800437141698,16.315372906490488,6.496483745388726
402,1456704148271356,7.3002602981093085,8.394793715383297,16.06480996420078,32.9201682406749,3.6227663045438607,2.838917410629605,16.189167085826515,6.528797849594595
403,1456704148271356,7.288658453659986,8.504194614496306,15.882423573395513,32.751443162571796,3.595816219127382,2.827072287591242,15.992963773018765,6.562425393012957
404,1456704148285396,7.277323474194319,8.595900280128856,15.651153806240337,32.459992291823156,3.5605802951586885,2.80767988894897,15.72904168456694,6.6003279512317565
405,1456704148285396,7.2689277496809055,8.667312425176597,15.37235620328431,32.04757287324703,3.5180185931872674,2.781241822658955,15.401198898101605,6.645520046779861
406,1456704148298474,7.2658774913071245,8.716024213506001,15.048095779409506,31.517044512042006,3.469122920333906,2.7483311816706704,15.014646773708252,6.700928603578959
407,1456704148298474,7.270223018999735,8.739886462242062,14.681119847325524,30.872398473818333,3.4148903421784222,2.7095773360711917,14.575862133718628,6.769245521592461
408,1456704148308389,7.283584084114634,8.737069977864058,14.274810441803485,30.11877323860684,3.3562975512733075,2.665651187501042,14.092405402921273,6.852780842449346
409,1456704148308389,7.3070916129281445,8.706124004713017,13.833122839196452,29.262459907641368,3.2942764363897044,2.617251203476289,13.572714479383428,6.953323782661184
410,1456704148314360,7.341346524267084,8.646030585029166,13.360517114977846,28.310898807972045,3.2296915001568727,2.5650905410473186,13.025884830374865,7.072018544185696
411,1456704148314360,7.386396227512883,8.556254176187766,12.861888193951687,27.272665354374542,3.1633201147398307,2.5098855339380113,12.461445717850768,7.209261482990874
412,1456704148322290,7.441729771803204,8.436785257733327,12.34249699849735,26.15743956250732,3.0958367677966434,2.452345742213614,11.889140989929636,7.3646256870413
413,1456704148322290,7.506292849025536,8.288176048486696,11.807902226169622,24.975950585111008,3.0278023589390552,2.393165685783917,11.318720856712764,7.536817942567446
414,1456704148330990,7.578523489130543,8.111565953233097,11.263890149345936,23.739886862831746,2.9596593214523734,2.333018326795931,10.759748801185522,7.723671422676862
415,1456704148330990,7.656408207345283,7.908693936818499,10.716399472101433,22.46176506838031,2.891732975763065,2.2725503187702576,10.221425749573662,7.922175486219178
416,1456704148345544,7.737556832413989,7.681894654845243,10.171439640410561,21.15475653185099,2.824239136313884,2.2123789665177283,9.712432307305841,8.128542026196428
417,1456704148345544,7.81929273483091,7.434075063612106,9.635002883478554,19.832476240709866,2.757297566164808,2.15309068933515,9.240789318297296,8.33830610403393
418,1456704148351505,7.8987541339138945,7.168668867920762,9.112971365842151,18.50874451705146,2.690950370822743,2.0952405293128495,8.813736804562389,8.546457374845764
419,1456704148351505,7.973001816347317,6.889567923660092,8.611021007346741,17.19733390617905,2.6251839156293704,2.039351966369027,8.437630898697476,8.747598108415483
420,1456704148367506,8.039128812261254,6.601032367880096,8.134523644075724,15.91171365920414,2.5599524697065226,1.9859161259112603,8.117857465349482,8.936123190713719
421,1456704148367506,8.094367973326339,6.307583985552542,7.688449847866683,14.664802014873331,2.49520160323013,1.9353894975640347,7.85876009949755,9.106416904384005
422,1456704148374499,8.136193692730206,6.013889226500334,7.277275534024351,13.468733191819876,2.430889426593953,1.8881895623382852,7.663579746473559,9.253060174257687
423,1456704148374499,8.162414183449213,5.72463883040727,6.904895773840838,12.334642735952958,2.3670040810461157,1.8446882277683108,7.534403766472698,9.371040316812438
424,1456704148382500,8.171250990179923,5.444430326344827,6.5745488131283825,11.272472700981135,2.3035764245205246,1.80520356270444,7.472123862645547,9.455953525974765
425,1456704148382500,8.161403023682036,5.1776583783189265,6.288752624880329,10.290797760561242,2.2406874640648544,1.769990783070443,7.476404406741738,9.504188868071385
426,1456704148390499,8.132093403692105,4.928416656781111,6.049255941209339,9.396674540455322,2.1784706211162406,1.7392336243773105,7.545664550951489,9.51308192168542
427,1456704148390499,8.083098263434774,4.7004138477399655,5.85700566541007,8.595517914678773,2.1171093154189844,1.7130371742538317,7.6770784976840725,9.481026988538483
428,1456704148404711,8.014756793219542,4.496905492011288,5.712132414586715,7.8910084380847225,2.0568306526054743,1.691423031211584,7.866598365909949,9.40753964481065
429,1456704148404711,7.927961405531914,4.320642448551227,5.613955407987361,7.28503444423506,1.9978962583628739,1.6743273896276956,8.109003703900267,9.293266164973556
430,1456704148412501,7.824126977336181,4.173835868684494,5.56100718599031,6.777671440482598,1.9405914937210886,1.66160238504252,8.397981202942534,9.139941655020406
431,1456704148412501,7.705139294399009,4.058137764757748,5.551077949782408,6.367200738590658,1.8852143079015473,1.6530207866587958,8.726237396701233,8.950302850011472
432,1456704148428215,7.573284749862993,3.974635684149408,5.5812786283567135,6.050168558206902,1.8320647902323903,1.6482838787113692,9.085645794499818,8.727963845477941
433,1456704148428215,7.431165172489645,3.92385961482456,5.648121059250671,5.821485799637763,1.7814361432007366,1.6470321462166098,9.467428064295726,8.477264172414847
434,1456704148434429,7.281602748394293,3.9057989030410596,5.747612994725181,5.674567248639444,1.73360742694081,1.6488582330260897,9.862366842647516,8.203099190356477
435,1456704148434429,7.127540371373414,3.919926686739883,5.87536507096415,5.601507374200317,1.6888381115921112,1.6533215877067324,10.261045656292247,7.910742659758316
436,1456704148451430,6.971942772763195,3.9652293980904556,6.026706413193271,5.593288406276405,1.6473642900738061,1.659964201816325,10.654109278423343,7.605670397360319
437,1456704148451430,6.817703525470711,4.040239413387712,6.196805288484868,5.640015202600298,1.6093963618506968,1.668326808821953,11.032535630662675,7.29339235041483
438,1456704148452430,6.667562276350285,4.143069699452495,6.380791202188853,5.731170606615866,1.5751180018140136,1.6779648109627898,11.38790827091574,6.97929859140755
439,1456704148452430,6.5240352871161855,4.271449941239557,6.573874874608176,5.855884642535159,1.5446861488489092,1.6884630575581256,11.712676915657234,6.668522915680928
440,1456704148465431,6.389360779453332,4.422764041132563,6.771462431261969,6.003210890687804,1.5182315584674608,1.6994485101843693,12.000392621967883,6.365826209288584
441,1456704148465431,6.2654589713656454,4.5940892993826825,6.969260008123443,6.162403306443635,1.495859264713225,1.710599876569674,12.245904230849522,6.075500692312936
442,1456704148472431,6.153905324374355,4.782238164135111,7.163365181595174,6.323186157385216,1.4776482302243075,1.721653441033683,12.44550335433014,5.80129541173524
443,1456704148472431,6.055914641633908,4.9838039228815845,7.350342312866951,6.476008615920665,1.463649605870138,1.7324045233043832,12.597006958946478,5.546362750834773
444,1456704148488432,5.972333451352862,5.195211716520023,7.527279576906799,6.612274222012152,1.4538833399713373,1.742704338938311,12.699770482515579,5.3132251495315055
445,1456704148488432,5.903638659811963,5.41277572699358,7.691825533695074,6.724534674348787,1.4483332616035858,1.7524525674890086,12.754630679631406,5.103760730431212
446,1456704148494432,5.849941678962384,5.632762556574276,7.842202828608536,6.806638216473378,1.446941088438618,1.7615864941491535,12.763784096109363,4.9192062085440025
447,1456704148494432,5.810998744695739,5.851459942150044,7.97719709111305,6.853825677472402,1.4496000038085484,1.7700679475204304,12.730611636068351,4.760175396131827
448,1456704148510764,5.786229277675503,6.065249196704883,8.096121095489073,6.8627712189371515,1.4561485250112955,1.77786938654123,12.659461758363694,4.626691700297276
449,1456704148510764,5.774744367021106,6.270679231031586,8.198757159919321,6.831568851555996,1.4663654052929322,1.784960503636283,12.55540600773886,4.518233060979782
450,1456704148513436,5.775386809847418,6.46453972363491,8.285283238934413,6.759669338722075,1.4799662999468026,1.7912966281691354,12.423981617148712,4.433787719908368
451,1456704148513436,5.786783020398995,6.643930967630389,8.356189432465452,6.647775131102749,1.4966028542195373,1.7968099830745072,12.270936108756825,4.371919159805992
452,1456704148524956,5.8074058419284755,6.8063280026956186,8.412191812566588,6.497703062145483,1.5158647039017148,1.8014044875692348,12.101987577223692,4.330838648701657
453,1456704148524956,5.835646003727526,6.94963665847002,8.45414990895448,6.312225199965193,1.537284619226289,1.804954397638153,11.92261187885365,4.308484042178617
454,1456704148531950,5.869888793621705,7.072239145285449,8.482993104099178,6.09489758950849,1.5603466972951145,1.8073067009941484,11.737864785202222,4.3026036431714045
455,1456704148531950,5.908591541496663,7.173027134519618,8.499659835034265,5.849885204692317,1.5844971629689273,1.8082868553487672,11.552243792714798,4.310843792359638
456,1456704148547459,5.950356764479469,7.251420994846044,8.505052228367335,5.581789817792402,1.6091570501884092,1.8077071905399633,11.369591207023644,4.330838374874778
457,1456704148547459,5.9939955067637944,7.307374705834506,8.500007649861178,5.295485960856159,1.633735888728746,1.8053771070164697,11.193037652498314,4.360297662718456
458,1456704148553459,6.038575942084974,7.3413666715910715,8.485287337314169,4.99596873274169,1.6576455290263161,1.801114105183274,11.024983283921795,4.397093128196452
459,1456704148553459,6.083453899500068,7.354377275302913,8.461580672977085,4.688215890843023,1.6803133422941212,1.7947546856216456,10.867112529011862,4.43933437894026
460,1456704148570495,6.128284150417922,7.347854691394795,8.42952202370058,4.377065604558595,1.70119419403942,1.7861643038225656,10.72043712071162,4.485434332496856
461,1456704148570495,6.173013231038215,7.323671027713353,8.38971589267793,4.06711060505235,1.7197808132893855,1.7752458515920457,10.58536164587481,4.534159028529312
462,1456704148572478,6.217855847720866,7.284071001968857,8.342765672456702,3.7626091840904876,1.7356124620790738,1.7619465007851876,10.46176592711459,4.584658780412006
463,1456704148572478,6.263257691841395,7.231615107376852,8.28930144193555,3.4674133390990076,1.74828208736568,1.7462630488291457,10.349098997631522,4.636477668039426
464,1456704148584465,6.309848031878924,7.1691189411686675,8.230002563149709,3.184914152931017,1.7574423110003183,1.7282460139383293,10.246479884120689,4.68953912150913
465,1456704148584465,6.358385649963764,7.099590157204631,8.165611020839759,2.918004197155563,1.7628106085698125,1.708002614346821,10.15280089383486,4.744107010241706
466,1456704148591465,6.4097012790477725,7.026164078189032,8.096931788570048,2.6690563978868203,1.7641738589385827,1.6856985593218539,10.066829743551681,4.800724031527265
467,1456704148591465,6.464638821369485,6.952038269473909,8.024817692524215,2.43991843731066,1.7613922265066653,1.6615584372803336,9.987307439937195,4.860131479098287
468,1456704148607501,6.52399694292591,6.880405708998094,7.950138692390212,2.2319213610302584,1.754402199253531,1.6358644409283,9.913038881048267,4.923176038480345
469,1456704148607501,6.588472602866121,6.814385914334597,7.873738625911884,2.045900592096519,1.7432185804084948,1.6089531602311558,9.84297271324011,4.990710062341766
470,1456704148613461,6.658608350342945,6.75695340607035,7.7963848922390895,1.8822270807313206,1.727935242157743,1.5812101762329076,9.776266754882426,5.063492012004427
471,1456704148613461,6.7347451039230535,6.710863097914643,7.718717336747149,1.7408460117100792,1.7087244319870463,1.553062247950773,9.712336003899052,5.142093445816247
472,1456704148630978,6.816981503963179,6.678572904314987,7.641202018387576,1.6213205161256912,1.6858344163155252,1.5249670663285315,9.650881709526338,5.226818069609026
473,1456704148630978,6.90514032106838,6.6621652467449595,7.564094469563404,1.5228782371328682,1.6595853277281927,1.4974008707322572,9.591901217011308,5.317637087784729
474,1456704148632479,6.998742181683326,6.663270792979756,7.487416051800651,1.444459241460438,1.6303632495963452,1.4708445840291324,9.535678655729452,5.414143748418582
475,1456704148632479,7.096986934443495,6.682999001047467,7.410946138188452,1.3847643701270074,1.5986127472442253,1.4457693445545778,9.482756662199321,5.515528923298095
476,1456704148645484,7.198743212108736,6.721880563691106,7.3342319844068244,1.342303440724286,1.564828170802407,1.4226223110406913,9.433890266655158,5.620578904090827
477,1456704148645484,7.302547213607835,6.779826745214205,7.256617089564308,1.31544272472955,1.5295440974029735,1.4018134538907892,9.389985783742556,5.727696037615366
478,1456704148651764,7.406612333328382,6.856109988752056,7.177287464860286,1.3024509958667672,1.4933252545750428,1.3837038206791623,9.3520290313772,5.834941977034852
479,1456704148651764,7.508851560697426,6.94936909618976,7.095333630969103,1.301543354206662,1.4567561810442284,1.3685955356929154,9.321007952525395,5.940102121940974
480,1456704148667753,7.606914196300803,7.057640826519337,7.009824603282022,1.3109220423836725,1.4204307807909589,1.3567236211046199,9.297835028572187,6.040768488558095
481,1456704148667753,7.698237492710775,7.178418064375068,6.91988879127572,1.3288135750856216,1.384941874069992,1.348249661525662,9.283274875530019,6.134436994330978
482,1456704148673700,7.78011278469033,7.308732952315338,6.8247958805360165,1.3535016514874743,1.350870853826695,1.3432573602871105,9.277881833392772,6.218614047945913
483,1456704148673700,7.849764879254948,7.445261753469739,6.724033718993813,1.3833554443557547,1.3187775680347888,1.3417500809164435,9.281951207006388,6.290926541405528
484,1456704148691487,7.90444291037593,7.584446850632278,6.617375034840232,1.416852937700647,1.2891905190711024,1.3436504618781804,9.295486463321286,6.349229037053143
485,1456704148691487,7.941520180053365,7.722630126905178,6.504929997226263,1.4525990696376925,1.2625973911248136,1.3488021175330156,9.318183281949436,6.391702188232012
486,1456704148692488,7.958599395164402,7.856190816837376,6.3871815981832825,1.4893385681334363,1.239435827753042,1.35697332070039,9.349429799733759,6.416937074711289
487,1456704148692488,7.953618340602942,7.981679799915571,6.265001457140375,1.5259635038569042,1.2200843582863394,1.367862445660332,9.388320868299779,6.424000959799237
488,1456704148705488,7.924950029170802,8.095941666742517,6.139644341961402,1.561515683040419,1.2048534621070572,1.3811048714813765,9.433683132866564,6.412480861338388
489,1456704148705488,7.871491153901723,8.196216292245294,6.012720834814775,1.5951841210575224,1.1939769408801504,1.3962810298477144,9.484107491690867,6.382502246786407
490,1456704148712488,7.792733032255542,8.280213459519906,5.88614896296533,1.6262980815965447,1.187603968139878,1.4129253417789192,9.537985883047055,6.334721208027368
491,1456704148712488,7.688809851591363,8.34615714502123,5.762086830878946,1.654316540564245,1.1857923408974618,1.4305359109309315,9.593550162777388,6.270289907354461
492,1456704148728364,7.560520108489106,8.392799528486742,5.642849272226334,1.678815287305021,1.1885035381769549,1.4485849756156655,9.648911797519728,6.19079711188981
493,1456704148728364,7.4093191466320185,8.419407511224474,5.5308125204094996,1.6994730268314453,1.195600176167263,1.4665301971885363,9.70210176607842,6.098187988944917
494,1456704148733705,7.237283548290763,8.425726140548946,5.428311814780423,1.716057737648988,1.2068463355438424,1.4838268491593256,9.751110264230254,5.994669330006117
495,1456704148733705,7.047050942563562,8.411924343755901,5.337537313483214,1.728414256929928,1.2219110611961363,1.4999408980039042,9.793925912516016,5.8826073986482825
496,1456704148750464,6.8417405533606015,8.37852920737419,5.260433491199089,1.7364537376198446,1.2403751459951067,1.5143628634524946,9.828574515785265,5.764425531085754
497,1456704148750464,6.624860215913214,8.326355487007996,5.1986066589401885,1.7401453327343277,1.2617411236982274,1.5266222041128585,9.85315783984629,5.642507759754788
498,1456704148752428,6.400205113324691,8.256436685870996,5.153244735866025,1.7395102297827172,1.2854462216208955,1.536301782782539,9.865892963256774,5.51911347791677
499,1456704148752428,6.171752699611403,8.169962870407133,5.125053027292992,1.7346179633983216,1.3108778901480906,1.5430517530395,9.865152413032224,5.3963067511239915
500,1456704148765429,5.943557404891474,8.068228717260675,5.114209392703184,1.725584760868978,1.3373914374817406,1.5466020319338594,9.849504711810736,5.275902389647332
501,1456704148765429,5.719647853490724,7.952593416239588,5.1203416593262885,1.7125735415494943,1.3643292233182982,1.5467724519416972,9.81775445657862,5.159429390155112
502,1456704148772429,5.5039286489526384,7.824452215738074,5.142529351836917,1.6957951221227887,1.3910407906481481,1.543479773294639,9.768980705102074,5.048110968098976
503,1456704148772429,5.300088400290269,7.685217910756235,5.179330765601183,1.6755101652185997,1.4169032463603894,1.5367409629020286,9.702572018483497,4.9428593236333285
504,1456704148787471,5.11151556212649,7.536309862324804,5.228835144522296,1.6520314087728483,1.4413411221976296,1.5266724130707112,9.618255816783847,4.8442826528692535
505,1456704148787471,4.941223781594965,7.379148340572986,5.288738244880224,1.6257256858796048,1.463844828711347,1.5134850235137982,9.516119143129357,4.752701705617715
506,1456704148793436,4.791788588717929,7.215152592594829,5.356437902438233,1.5970151867508395,1.483986675562349,1.4974753194989145,9.396618198237773,4.668173268817012
507,1456704148793436,4.665297140961443,7.045741248826481,5.429144483060974,1.5663773774066267,1.5014333686253107,1.479013024152208,9.260575240357179,4.590518249285467
508,1456704148811431,4.563312280735169,6.872333266956671,5.503999513927862,1.5343430024955733,1.5159540097884916,1.4585256843186691,9.109163004806375,4.51935248802858
509,1456704148811431,4.486851562199998,6.696347209214626,5.578194704063312,1.5014916210850686,1.5274229243876325,1.4364810411628466,8.943878039505014,4.454118905506323
510,1456704148812432,4.43638123622793,6.519197039357744,5.649083314284816,1.468444156295019,1.5358170595468748,1.4133679049842025,8.766505233229212,4.394119935598405
511,1456704148812432,4.411824445870828,6.3422837960544465,5.714276593612856,1.4358520908092525,1.5412081865986464,1.389676412801858,8.57907652620835,4.33854953771166
512,1456704148825371,4.41258221461556,6.166983676978464,5.771719651041065,1.404383275225761,1.5437506314776959,1.3658786803896128,8.383827216073035,4.286524464470431
513,1456704148825371,4.4375654042408685,5.994633674731495,5.8197433618501915,1.3747047388316826,1.5436656136856493,1.3424108870855336,8.183153134841886,4.237114793944993
514,1456704148832374,4.485235663741451,5.826516055333219,5.85709136789636,1.3474632568822231,1.541223426213914,1.3196576986087785,7.979571338782579,4.189373892498807
515,1456704148832374,4.553653312289883,5.663842998834939,5.882923584785401,1.323264672630259,1.5367247060134457,1.2979397087763047,7.775686127214231,4.1423679957999875
516,1456704148847637,4.640530120723894,5.507742723293221,5.896799467319957,1.3026530982633047,1.53048200088554,1.2775043534431263,7.574161306238516,4.095205496408637
517,1456704148847637,4.743285326808328,5.359248310037,5.898645328111967,1.2860911400211636,1.5228027223746419,1.258520541837819,7.3776985770248995,4.047065691958137
518,1456704148853839,4.859103956037724,5.21929015589673,5.888710420271812,1.2739422374890592,1.5139743887816701,1.24107704474789,7.189020764985213,3.99722613348439
519,1456704148853839,4.984997182879481,5.088692434433943,5.867516639882827,1.2664561086472825,1.5042528729893356,1.2251844766767106,7.010857439418411,3.9450869981844665
520,1456704148870843,5.117864646645984,4.968173174110948,5.835806591178609,1.2637581519823824,1.4938542071312089,1.2107805382727694,6.845929559006351,3.8901903893448555
521,1456704148870843,5.254558442993164,4.858346745162092,5.794494142800415,1.2658434473240572,1.4829503153650025,1.1977380683292402,6.696929538885551,3.8322323802733496
522,1456704148872639,5.391948303723779,4.759726981810953,5.744620471044671,1.2725757065682415,1.4716687996599531,1.1858753943549367,6.566493885494394,3.7710661196452815
523,1456704148872639,5.526987285506286,4.6727290687718295,5.687317269400217,1.2836911820158028,1.4600965973205213,1.174968465923645,6.457167038359638,3.7066954328766726
524,1456704148884850,5.6567768509982335,4.597668741940398,5.623777712760806,1.2988071894500388,1.4482870072935483,1.164764283311423,6.371356509860714,3.6392598561678624
525,1456704148884850,5.778629499122069,4.534758195414004,5.555235064449595,1.317434585516713,1.4362692945418214,1.1549951336302138,6.311280271520962,3.5690134062172763
526,1456704148891851,5.890126424084615,4.484099060479406,5.482948287236592,1.3389932983006778,1.4240598699367741,1.145393084738134,6.278907821891206,3.4963001072701827
527,1456704148891851,5.989167412158287,4.445673513138918,5.408193290660614,1.3628298992895405,1.4116739432222212,1.135704124952731,6.275896989251954,3.4215292295016706
528,1456704148907855,6.074010417119957,4.419334776600378,5.332257400001117,1.3882362487288855,1.3991365782924785,1.1257013625002785,6.303529382773367,3.3451526186198355
529,1456704148907855,6.143298953579188,4.4047981900099105,5.256433571732935,1.414468403201037,1.3864922313410601,1.1151968218504078,6.362648289588996,3.267645824244281
530,1456704148913740,6.19607650751978,4.401633898183911,5.182010396661401,1.4407651588240662,1.373812077743025,1.1040515250156309,6.453603449807531,3.189494172958838
531,1456704148913740,6.23178823472674,4.4092622093483,5.110254619936323,1.4663657461155468,1.3611986677243717,1.092183649551126,6.576207258885439,3.1111844181887323
532,1456704148931149,6.250270868602826,4.426952713465692,5.042384856302138,1.4905262795090508,1.3487876578002238,1.0795745806555954,6.729706401264608,3.0332020035073093
533,1456704148931149,6.251731972785799,4.453828173760021,4.979537638244252,1.512534642432955,1.3367465756566783,1.066272646074077,6.912771800579122,2.956033305049198
534,1456704148933149,6.236719862993096,4.488873858756578,4.922728827787501,1.5317236287688023,1.3252708225509684,1.0523942984956773,7.123508304240651,2.880171617193686
535,1456704148933149,6.206085983306676,4.530952432298743,4.8728142235264675,1.5474823796942276,1.3145773553768394,1.0381225386513762,7.359483943101094,2.806125285789333
536,1456704148944156,6.160942105695106,4.578823954021906,4.8304530887024635,1.5592663665599757,1.30489666406346,1.0237024621174433,7.617777144005504,2.7344263432300533
537,1456704148944156,6.102615049906188,4.631170119162762,4.796077736952259,1.5666062613119989,1.2964637702295698,1.0094339630337013,7.895039084897492,2.6656381311866393
538,1456704148954156,6.032601504532657,4.686621684859024,4.769871581738779,1.5691159734094815,1.2895090117678991,0.9956618447371876,8.18756753449656,2.6003604926020447
539,1456704148954156,5.952525108903723,4.7437880890057,4.7517574292080464,1.566499981097527,1.28424929399883,0.9827638353695854,8.491387957094478,2.5392311301659993
540,1456704148968157,5.864097433125011,4.801288369115825,4.741397369502594,1.5585599451962715,1.280880282693794,0.9711371895613362,8.802337241084878,2.4829218523763132
541,1456704148968157,5.769083868313074,4.857782386833279,4.738205251703187,1.5452005414702985,1.279569776753274,0.9611845945615053,9.116145196692315,2.432128839758052
542,1456704148974159,5.669274583464727,4.912001051156948,4.741372152120669,1.526434503248703,1.2804523078529342,0.9533000012850615,9.428509478406816,2.3875567237632818
543,1456704148974159,5.566459626076655,4.962773966997839,4.749904379889274,1.502386981970517,1.2836248772342247,0.9478548518430445,9.735161241775195,2.3498969977019435
544,1456704148991387,5.462406201779156,5.009053023771242,4.762672577482734,1.4732994156091117,1.2891436452631828,0.945185055942943,10.03192119717062,2.3198019488327435
545,1456704148991387,5.358835554492897,5.049930998511202,4.778469577177336,1.4395330756475138,1.2970213740311816,0.9455789996215609,10.314747735109663,2.2978558740868626
546,1456704148993383,5.25739699929969,5.084655038844762,4.796073942619169,1.4015723722763225,1.3072255219587061,0.9492668238962595,10.579779875163123,2.2845457368449593
547,1456704148993383,5.159637674278748,5.1126354404576615,4.814315572617943,1.3600279146549155,1.319677037431785,0.956411175279115,10.823378090268564,2.280233515511482
548,1456704149005388,5.066968277897215,5.1334501669986565,4.832139428885374,1.315639253974282,1.334249975395573,0.9670996270621041,11.042165905392899,2.285132268582121
549,1456704149005388,4.980626779942207,5.146845223350907,4.848663392094193,1.2692771080758676,1.3507720520374598,0.9813390067554103,11.233074678781241,2.299287512454329
550,1456704149014161,4.901643120529031,5.152730581913945,4.86322643214328,1.2219446513216317,1.369026265475001,0.9990519019214973,11.393393163235201,2.3225650066145063
551,1456704149014161,4.830808118532722,5.151171059333758,4.875423828729669,1.1747772350965855,1.3887537933493397,1.0200756070157495,11.52082241859817,2.354645531676846
552,1456704149028284,4.7686495556764195,5.142371549895496,4.885127290918347,1.1290398036231646,1.4096584313655371,1.0441637011585292,11.613535590600147,2.395026762439335
553,1456704149028284,4.715417912547069,5.12665661138463,4.892489355060386,1.0861213502308382,1.4314127483757764,1.0709903194149597,11.67024101779286,2.4430319200659474
554,1456704149034426,4.671083486240022,5.104445512869501,4.897932913618193,1.0475259744157133,1.453665916449326,1.1001570174970337,11.690245832301297,2.4978245580876166
555,1456704149034426,4.635345673798724,5.0762249398923665,4.90212775569524,1.0148603023540033,1.4760529173965704,1.1312019594196803,11.673515422236916,2.5584285775997304
556,1456704149051270,4.6076543029087835,5.0425220974297185,4.905956445616107,0.9898170832232974,1.4982045897515177,1.163611014526339,11.620721990870125,2.623752370511848
557,1456704149051270,4.587242242116705,5.003880922030267,4.91047180905872,0.9741546880242,1.5197578025311769,1.1968302734628697,11.533273988040861,2.6926159129945213
558,1456704149053270,4.573168083227614,4.960843702231565,4.916848066094575,0.9696722074447129,1.540365002797504,1.2302795056470595,11.41331900655962,2.7637797096850907
559,1456704149053270,4.564367199962588,4.913939677235553,4.926327637606738,0.9781800617846236,1.5597025396972168,1.263366154409958,11.263716363278737,2.8359746267958146
560,1456704149064270,4.55970880794936,4.863681148992907,4.94016593028548,1.0014664995812645,1.5774774385927914,1.2954995184334648,11.087980145929087,2.9079316982149335
561,1456704149064270,4.558055982219427,4.810566435517212,4.959576663682083,1.0412608846162836,1.5934325186051177,1.3261047462526194,10.890196413068834,2.9784108913740948
562,1456704149073271,4.558325263405279,4.755087906584582,4.985680214008061,1.0991950562109707,1.6073498465576093,1.3546362288764773,10.674919030636849,3.0462276674658204
563,1456704149073271,4.559542646336839,4.697742755151038,5.019457057031202,1.1767642327767167,1.6190525848997612,1.380590016878396,10.447048779571572,3.110276173073853
564,1456704149088454,4.560893304992568,4.639044296751615,5.061708050367209,1.275288978745757,1.6284054159209964,1.403515021984866,10.211700814771804,3.169548282670885
565,1456704149088454,4.561763151667516,4.579532284680525,5.113023212960504,1.3958797664891311,1.6353138848503017,1.4230228913757585,9.974066038542563,3.2231484549971787
566,1456704149094455,4.561771023338518,4.519781518600426,5.173760616942115,1.5394056809559682,1.6397230991817129,1.438796488508383,9.739272169475294,3.270305121505503
567,1456704149094455,4.560790841272791,4.460408537529487,5.2440366392844435,1.7064688063731928,1.641616202091429,1.4505968915166625,9.512250255773138,3.3103797235255317
568,1456704149111451,4.55896357365182,4.402076343207502,5.323728068364029,1.8973857356771393,1.6410129470860138,1.4582687884470857,9.297611972576798,3.3428744779133535
569,1456704149111451,4.556699263472616,4.345497014178059,5.412485665363421,2.112177414922157,1.6379685985530756,1.4617441486182412,9.099542095082992,3.3674396344441595
570,1456704149112273,4.5546696319234865,4.29143193208801,5.5097579537390216,2.350568213845531,1.6325732795577,1.4610440763785817,8.921709214372044,3.383880555628467
571,1456704149112273,4.553791759770698,4.240689352206584,5.6148233036912,2.6119947903348026,1.6249517625420034,1.4562787782546232,8.767196427767562,3.3921644749732693
572,1456704149132794,4.555203220287379,4.194119360406379,5.72682782185079,2.895625043289306,1.6152635362833678,1.4476455866822813,8.638452704173822,3.3924263083912245
573,1456704149132794,4.5602289628119435,4.152606802815321,5.844826248076216,3.200387185434928,1.6037027861699495,1.4354249977412932,8.53726501601356,3.384972450468928
574,1456704149134801,4.570340271273385,4.117063197207126,5.967823047289715,3.525008624224918,1.5904977246547443,1.4199747074399465,8.464750992997097,3.370281145980708
575,1456704149134801,4.587106236510932,4.088418582466896,6.094810991577985,3.868063848545185,1.5759085848165946,1.4017216608724177,8.421371472527376,3.3489978969193
576,1456704149147804,4.612138416779333,4.067613744022372,6.224804487131769,4.228029871177091,1.560223642334994,1.3811521506145452,8.40696161851282,3.321924561491412
577,1456704149147804,4.647029704319842,4.055592579364867,6.356864757751397,4.603347016862216,1.5437528847550324,1.3588000387274495,8.420778201648435,3.2900013203374887
578,1456704149153809,4.693288756054405,4.053293818912018,6.490114284544308,4.992482053559382,1.52681930920449,1.3352332652946377,8.461559499640003,3.2542814198020547
579,1456704149153809,4.752271606747733,4.061641001870885,6.623739134308466,5.393989879523997,1.5097481821180265,1.3110389380905323,8.527593612521805,3.215899466672582
580,1456704149169804,4.825112347956153,4.08152952353623,6.756979761079937,5.806569159850224,1.492854889895127,1.2868074307261812,8.616791085441939,3.1760349349817454
581,1456704149169804,4.912655199650599,4.113809708119615,6.889112632718473,6.229106502740789,1.4764322329438344,1.2631160114589965,8.726758473744189,3.135873227057914
582,1456704149177098,5.0153909317924725,4.159265280338828,7.019425898375659,6.660703363951635,1.4607381171884255,1.2405125616503303,8.854870558503547,3.096566899815875
583,1456704149177098,5.133401118359705,4.218587397556939,7.1471923197834775,7.100680520631961,1.4459845399398703,1.2194999309436108,8.998339998631877,3.059199512979946
584,1456704149183811,5.266313792376741,4.292345462810727,7.271642447300437,7.548557130208982,1.43232859360678,1.2005214449605317,9.154283999727623,3.0247541146938643
585,1456704149183811,5.413273656134215,4.380956873512012,7.391941116894637,8.004004825726962,1.4198660121383364,1.1839480498872053,9.319787878840044,2.994087803385245
586,1456704149193806,5.5729292382247335,4.484658237990191,7.507170794088716,8.46678085577838,1.4086276298447251,1.1700675506396825,9.491965192557759,2.967913218562936
587,1456704149193806,5.7434384757877375,4.603480300728472,7.616325492210574,8.936646677051979,1.3985790165148881,1.1590763719568502,9.668013603046123,2.9467872746878516
588,1456704149207806,5.922493404508071,4.737228089543617,7.718318360317391,9.41327931537179,1.3896234492229254,1.1510742304605492,9.845265130933033,2.9311069310298232
589,1456704149207806,6.107364209193094,4.885466964420401,7.812004583051202,9.89618276465831,1.38160822985958,1.1460620303797213,10.021228950532675,2.921111288829777
590,1456704149213806,6.294962728139165,5.047514564847464,7.896219392549008,10.384606080880156,1.3743341544590435,1.143943171612718,10.193624527097365,2.9168889588694267
591,1456704149213806,6.48192514764393,5.222438240702243,7.969829117581646,10.877473655263925,1.3675677331661598,1.1445282869255406,10.360403032444353,2.9183895757949525
592,1456704149230320,6.664712690372517,5.409057390564063,8.031791468893372,11.37333163014891,1.3610556011749433,1.1475432378186563,10.519755817339645,2.925438467162329
593,1456704149230320,6.839727626499752,5.605950181843514,8.081219894783413,11.870313066913662,1.3545404590586996,1.1526400401930723,10.670109928713709,2.9377535739184837
594,1456704149236330,7.003440226678499,5.811464446301391,8.117446097624397,12.366123721099088,1.3477778158862024,1.159410259815365,10.810111777904977,2.9549636197110867
595,1456704149236330,7.15252070461438,6.023733148972187,8.140074829340662,12.858050251014749,1.3405527893494857,1.1674002784388229,10.938601059552067,2.9766263178949077
596,1456704149243331,7.2839690670977495,6.240695456355123,8.149025931822143,13.342993010766927,1.3326962643949587,1.1761277014696352,11.054577933940456,3.0022453175914623
597,1456704149243331,7.3952351213425045,6.4601246389661275,8.144560286552823,13.817525414525768,1.3240997964557677,1.1850981356534116,11.157167090260058,3.031284851170771
598,1456704149253331,7.48432052366119,6.67966364299598,8.127288647295932,14.27798062656457,1.314728715176882,1.193821658132527,11.245582581346635,3.0631817025012253
599,1456704149253331,7.549854967973755,6.896868422340762,8.098164472271739,14.72056440896221,1.3046329360926936,1.2018284913898096,11.319097555835087,3.097354964198256
600,1456704149267369,7.591140248004598,7.109258474537907,8.058463017009508,15.141491251703727,1.2939550445571137,1.20868361414854,11.37702311727919,3.13321477603035
601,1456704149267369,7.608159299164461,7.314373659368178,8.009749061967465,15.53713983689483,1.282935266715009,1.2140002130060723,11.41870002085976,3.170171596846848
602,1456704149273332,7.601551352044077,7.5098360817360295,7.953835410104715,15.90422316122007,1.2719129583611621,1.2174519813868052,11.443505765469727,3.207647484836031
603,1456704149273332,7.572557430154101,7.693415266383476,7.892734230059356,16.239967991501445,1.261324235632476,1.2187842929797434,11.450878414986937,3.2450904500132225
604,1456704149289333,7.522942037805456,7.863094108397408,7.828603496542312,16.5422979661175,1.2516954128538744,1.217824232174963,11.440357447055378,3.2819924134166856
605,1456704149289333,7.45489754246043,8.017132602170417,7.763691037550017,16.81001470067083,1.2436321054122492,1.2144893816488942,11.411640737635308,3.3179108237682233
606,1456704149296333,7.370938043122027,8.154126287885948,7.700278795566753,17.042971156807955,1.237804233910408,1.2087951583567818,11.36465513978064,3.3524935573151
607,1456704149296333,7.273789522068075,8.27305628238365,7.6406296707622605,17.2422306102347,1.2349276075707574,1.200860362360692,11.299636212945426,3.385506287783181
608,1456704149303334,7.166282673565195,8.373327372096856,7.586938927982989,17.410202949599867,1.2357430776010272,1.1909105030123244,11.217211028437012,3.416861033260318
609,1456704149303334,7.051253951089924,8.454790329145235,7.54129196169181,17.55074867916389,1.2409943565363737,1.17927845362744,11.11847703792435,3.446644127492595
610,1456704149313334,6.9314591265558825,8.517745053211456,7.505630169129286,17.66924072301909,1.2514055592311986,1.166402068260043,11.005069803277504,3.47514150354305
611,1456704149313334,6.809502122005886,8.562922638382242,7.481726362593584,17.77257511102198,1.267659415060113,1.152818526052464,10.879212666573698,3.502858932289798
612,1456704149328380,6.687780261765952,8.591446708209666,7.471170316167614,17.869123661248935,1.290376965294929,1.1391553087334128,10.743741945161954,3.53053470830936
613,1456704149328380,6.568445704461363,8.604776649548382,7.475363857594281,17.96862470811975,1.3200994096502598,1.126117862063978,10.60210215045173,3.5591423080288895
614,1456704149333541,6.453381931909761,8.604637051475466,7.495523751436814,18.082011218901815,1.3572726032644302,1.1144741409769834,10.458307507458226,3.589881003099329
615,1456704149333541,6.344193797495339,8.592938516059942,7.5326897738309535,18.22117794097082,1.4022345186414158,1.10503635128587,10.316868886949429,3.624153458696301
616,1456704149349735,6.242209420222755,8.571695221743827,7.587734956897242,18.398689711755292,1.4552057722087084,1.0986402349870579,10.182688680782308,3.663530760940613
617,1456704149349735,6.148491838652743,8.54294432013895,7.661375046379927,18.627433258464684,1.5162830926705326,1.096122225625263,10.060929070316375,3.709706590707844
618,1456704149356759,6.063857863160173,8.508671473197733,7.7541749430444735,18.92021746917946,1.585435430933474,1.0982948095174259,9.956860616403075,3.764443009932665
619,1456704149356759,5.988901221625872,8.470745831814952,7.866551205671406,19.28933274555432,1.662502340473109,1.1059205334103752,9.875698201676999,3.829510528109258
620,1456704149372749,5.924017071145388,8.430866902202984,7.998770877190583,19.746085819107975,1.7471943056841062,1.1196853030916811,9.822430928499625,3.9066249901544112
621,1456704149372749,5.8694253768893745,8.390525136639305,8.150947154231625,20.300329240448946,1.8390948046058848,1.1401718699610583,9.801652257540814,3.9973835734067396
622,1456704149374547,5.825191477273712,8.350977455572735,8.323031637735793,20.960004283504624,1.9376639697058873,1.1678346128547104,9.817396544644524,4.103201858244715
623,1456704149374547,5.791242984804962,8.313238065315508,8.514801632771443,21.730713926485723,2.042243701000829,1.2029767985732878,9.872988073588198,4.225253560527858
624,1456704149387743,5.767382622805931,8.278083999567485,8.725840054525065,22.61534036130113,2.152064019316322,1.245731415974678,9.970908515927622,4.364414193136282
625,1456704149387743,5.75329667283087,8.246073947934002,8.95550585597495,23.61371983168325,2.2662504061606366,1.2960464782859944,10.112688219993107,4.521209812075198
626,1456704149393749,5.748558758677699,8.217578125209927,9.202894918176177,24.722386865935484,2.3838319003420794,1.353675469071725,10.2988256860809,4.695772163819779
627,1456704149393749,5.75262903048259,8.192816159807899,9.466794235975312,25.934400085400704,2.503749773237363,1.41817342526317,10.528738126408633,4.887801903490696
628,1456704149410551,5.7648494449090455,8.171899322453054,9.74563450048405,27.23926205035631,2.624866643942158,1.4888989828547414,10.80074439714967,5.0965419026852326
629,1456704149410551,5.784436524571591,8.154872969995646,10.037447098838486,28.62294534387208,2.745975947517694,1.5650224999886162,11.112080100951902,5.320762784984083
630,1456704149416551,5.810473477110262,8.14175503034406,10.33983159626801,30.06803604809689,2.8658117988640526,1.6455401084811307,11.458943443341452,5.558762584421772
631,1456704149416551,5.841903836929441,8.13256698189443,10.649939536732218,31.554003573308872,2.9830595248420813,1.7292932793351006,11.836569445330042,5.808381859971088
632,1456704149433096,5.877528991071694,8.1273550567234,10.964479785376533,33.057601540766264,3.0963673962301783,1.8149932891285907,12.239329322382451,6.067034892524927
633,1456704149433096,5.916012051307316,8.126200904438305,11.27974925086213,34.55339751797955,3.2043602427282116,1.9012498971092806,12.660851433356605,6.331756905951696
634,1456704149434569,5.955890314295706,8.129222309257157,11.591690710065985,36.014420487152165,3.3056555947440103,1.9866035865383669,13.094160503103128,6.599266619261345
635,1456704149434569,5.995597876766682,8.136565484512031,11.895977038553259,37.41290541992106,3.398882806543385,2.0695607944241567,13.531832727873926,6.866042809068279
636,1456704149447570,6.033499007557133,8.148390656425713,12.18811878368245,38.721105655502726,3.4827053678124984,2.148631519692825,13.966165002862898,7.128412990200564
637,1456704149447570,6.067931956614314,8.164852056397148,12.463589843433073,39.91213714008904,3.555846345186308,2.2223685061289027,14.389355765452581,7.3826518804281935
638,1456704149453576,6.097262262146017,8.18607264390574,12.717964217986575,40.960815146464505,3.617116622679191,2.2894069026435244,14.793692512662986,7.6250869146897
639,1456704149453576,6.119944309845089,8.212113664158302,12.947055782487602,41.84444450105565,3.6654453604504518,2.3485030162945715,15.171737766318493,7.852207616505357
640,1456704149469580,6.134589638027574,8.242939853203017,13.147053045486677,42.54352748598067,3.699911850343755,2.398570564793465,15.516502839320484,8.060775299339818
641,1456704149469580,6.1400399751437105,8.278382434120378,13.314641624601546,43.042356946094436,3.719777611293414,2.438712729184435,15.821599093634681,8.24792967284362
642,1456704149476801,6.1354421921435724,8.318103262795551,13.447108199540963,43.32946489533646,3.724517101529554,2.4682483292074657,16.081360105808493,8.411289502595332
643,1456704149476801,6.120321382274919,8.361563952826911,13.54242084582505,43.39790179703098,3.7138450067457347,2.4867306465584007,16.290933565608423,8.549045137772774
644,1456704149492790,6.094647239637216,8.40800350414553,13.599282007247835,43.24533195240796,3.6877379448928194,2.493957844678197,16.446346055207695,8.66004090877632
645,1456704149492790,6.058887928516427,8.456427267257867,13.617151970635534,42.87394547117457,3.646448664422381,2.489974535992801,16.544545810897407,8.743844785412033
646,1456704149495571,6.014045140958443,8.50560923888483,13.596242461742966,42.290202651429354,3.5905112475410896,2.4750646718644784,16.58342885510422,8.800801550775898
647,1456704149495571,5.961664563698843,8.554108674229077,13.5374815728843,41.50443791158068,3.5207363416708914,2.4497363779637666,16.561853292581446,8.832064718367285
648,1456704149507801,5.903817510847481,8.600300862736383,13.44245241598875,40.530356381971586,3.4381961024581,2.414699570078379,16.47964495124531,8.839601963709777
649,1456704149507801,5.843051401620744,8.642420898669258,13.313308904241426,39.38445826524943,3.3441994194650704,2.3708373227997726,16.337594924599248,8.826169203248446
650,1456704149513797,5.7823087279413885,8.67861846577731,13.152673211818126,38.085425894510706,3.240258926031646,2.319172215713794,16.13744698213029,8.795249884993039
651,1456704149513797,5.724816470437907,8.7070208045015,12.963520567950027,36.65350619388698,3.128051929498197,2.2608292485543573,15.88187146917489,8.750958671472032
652,1456704149529792,5.673950618889079,8.725800025443364,12.749057828238172,35.10991604097468,3.009377581806593,2.196997226348809,15.574422323266024,8.697912089299274
653,1456704149529792,5.633082794256376,8.733240074363284,12.512602816490944,33.47629040078043,2.886112420351805,2.1288906046718563,15.219474409755703,8.641071933650554
654,1456704149536735,5.605417300397516,8.727798413986473,12.257471753640168,31.77418561139829,2.7601659902792925,2.0577136367061866,14.822139156928907,8.585569328090832
655,1456704149536735,5.593827350417933,8.708158207419586,11.986881658815154,30.024644944828488,2.6334377909702336,1.9846283803055815,14.388157830193919,8.536518116932152
656,1456704149552724,5.60069908789277,8.673268444433011,11.70387289959496,28.247830464390752,2.507776483062227,1.9107277917039274,13.923773940162096,8.498826068153694
657,1456704149552724,5.627791485758641,8.622371541556044,11.411254369184489,26.462723017282368,2.3849422425961118,1.8370147612140795,13.435588655432715,8.477011554639875
658,1456704149554510,5.676119269063498,8.55501974361621,11.111571012626515,24.686890095726973,2.2665732090752244,1.7643875167938776,12.930404815237784,8.475032183228858
659,1456704149554510,5.745864787060149,8.471082619623338,10.807091340492919,22.936319081535043,2.1541568941247085,1.6936313518592234,12.415065937015354,8.496130621695563
660,1456704149567730,5.836323415277973,8.37074793134266,10.499811273024806,21.225311127854024,2.0490071021794525,1.625416192111836,11.896296930253328,8.54270210884639
661,1456704149567730,5.9458856999634,8.254517435614629,10.191470068881264,19.56642880816415,1.9522464871367213,1.5602991874094643,11.380553480164382,8.616187965027983
662,1456704149573723,6.072058084399741,8.123198300304727,9.883574281668105,17.970488909093657,1.8647945196181364,1.4987313467058503,10.873887146947357,8.716999480458828
663,1456704149573723,6.211522623906697,7.9778901778549,9.577426486134435,16.446590670512602,1.7873604815712738,1.441067206522959,10.38183272422744,8.844476315000009
664,1456704149591513,6.360234539101751,7.819967676700101,9.274156289593545,15.002169843204435,1.7204411281526333,1.387576574930774,9.909323052825421,8.996882708041774
665,1456704149591513,6.51355479960333,7.651057992586103,8.974751440921038,13.643070376487687,1.664322751756319,1.3384574727449277,9.460634410279225,9.171443422060342
666,1456704149596514,6.666413292244136,7.473013850679887,8.680086856911965,12.37362786728752,1.619087428468108,1.2938494798217257,9.03936320156047,9.364419669257408
667,1456704149596514,6.813496636359737,7.287882549369781,8.39094954450382,11.196761114951887,1.584623180946039,1.253846790783214,8.648432434974902,9.571223543216789
668,1456704149612513,6.94945341570896,7.097872438709147,8.108058017142275,10.114069567400549,1.560637681400939,1.2185104078806743,8.290124699462757,9.786567870859283
669,1456704149612513,7.069108457485919,6.905318294232441,7.832075955176604,9.125935179677876,1.5466749779063322,1.1878790390101892,7.966137139193953,10.004647002491781
670,1456704149614514,7.167676765275736,6.712646748172349,7.563621163481362,8.231627652387075,1.542134596832864,1.1619783719654695,7.677653120217519,10.219342786465365
671,1456704149614514,7.24096690027335,6.52234249792123,7.303271631802898,7.429412324652043,1.5462923180999786,1.1408284183258572,7.4254246698185336,10.424448556877593
672,1456704149628311,7.285563204436806,6.336915671996366,7.05157037774984,6.7166600404711705,1.558321969781793,1.1244486028437786,7.209859211353352,10.61390220521285
673,1456704149628311,7.298976551189816,6.158870437924746,6.809030081666868,6.089958135235042,1.5773176866117116,1.1128603306960156,7.031103806880451,10.782017601992843
674,1456704149633412,7.2797546703415,5.990674537482641,6.576137752459353,5.545221578106597,1.6023161342117898,1.1060869585357251,6.889120412337479,10.923702637898929
675,1456704149633412,7.227545696199497,5.834729010193647,6.353358959996865,5.07780339488481,1.6323181954767616,1.1041513461781252,6.783746630926645,11.034652780794433
676,1456704149649423,7.143112096730429,5.693337093902373,6.141140688017577,4.682603584644701,1.6663095860104498,1.1070713287884295,6.714737844324358,11.111511133658173
677,1456704149649423,7.028296012266292,5.568671218283044,5.939911899471356,4.354175540879748,1.703279845842287,1.1148534556963616,6.681788126998932,11.151988282781401
678,1456704149656423,6.885940801278353,5.462737120811646,5.750081541959755,4.086828511902121,1.742239173840445,1.1274852456969693,6.684528999758227,11.154936681263186
679,1456704149656423,6.719776612759232,5.377334448470011,5.572034606466056,3.874724259183742,1.7822326812402256,1.1449261392677796,6.722506965290828,11.12037534565079
680,1456704149672424,6.5342793203202625,5.31401377604106,5.406127504174158,3.7119661709290224,1.8223518711766125,1.1670973871704409,6.795142747842278,11.049462685818014
681,1456704149672424,6.334512001265467,5.274030737037124,5.2526841477502675,3.5926796957386316,1.8617434295140738,1.1938712815655965,6.9016767937068835,10.944418835688067
682,1456704149674419,6.12595696044738,5.258298831863092,5.11199370797111,3.5110837336573297,1.8996155946237125,1.2250603048129671,7.041106530717937,10.808402674798158
683,1456704149674419,5.914344856317681,5.267343228125114,4.984310311950509,3.461553119338479,1.935242395211912,1.2604068884765696,7.212121146007944,10.645351424287972
684,1456704149687425,5.705486160242167,5.301258249703261,4.86985431612117,3.438672404120032,1.9679659932596862,1.2995745596972754,7.4130394783580495,10.45979225855322
685,1456704149687425,5.50510900975589,5.359671251532288,4.768814490628555,3.4372810344343896,1.99719737815927,1.3421412978185485,7.64175632039301,10.25663658564538
686,1456704149693425,5.318706499560308,5.44171546081786,4.681350506723004,3.4525100872580587,2.022415779225549,1.387595887199885,7.895702111740877,10.040968636767321
687,1456704149693425,5.151395721492075,5.546014353581693,4.6075953513598265,3.4798110881439492,2.0431673347971917,1.4353379261060946,8.171820493502047,9.817840128997975
688,1456704149711421,5.007790568309106,5.670680097601769,4.547657560776716,3.5149779406923574,2.0590636480924696,1.484681966269976,8.466567187386694,9.592081601474678
689,1456704149711421,4.8918903591003,5.813328192353563,4.501623391848895,3.554163365840123,2.069780777494097,1.5348660315742555,8.775932154760161,9.36813878271662
690,1456704149716426,4.8069864011050445,5.9711095759314965,4.469559106095202,3.59389131181945,2.0750589875560674,1.5850645176540903,9.095485339684853,9.149939574353644
691,1456704149716426,4.7555884412266884,6.14076040636237,4.451513324605878,3.6310665302674496,2.0747033571349847,1.6344052455313267,9.420444930315668,8.940794553823217
692,1456704149732929,4.739372559064264,6.318668739979021,4.447519024257482,3.6629819928556526,2.0685851852968256,1.6819902458197573,9.745766177528818,8.743331753186224
693,1456704149732929,4.759151449347917,6.500956488061144,4.457594411963989,3.687324183183613,2.0566440341430554,1.7269196525470967,10.066248208656502,8.559464861638943
694,1456704149734433,4.814867283588589,6.6835743055297065,4.481741813727198,3.7021757406835136,2.0388901618879913,1.7683178512363524,10.376655553534556,8.390392614876157
695,1456704149734433,4.905606562359575,6.862406453916904,4.519943945003705,3.7060146663471114,2.015407039145828,1.8053607656636936,10.671850050068674,8.23662583726037
696,1456704149747470,5.029635756118205,7.033382134984647,4.5721574218728955,3.69770943843028,1.9863536286062262,1.8373029491399009,10.946927757831729,8.09803759547724
697,1456704149747470,5.184456198005961,7.1925891807506614,4.638303819634216,3.676509836143242,1.9519661283655467,1.8635030584870491,11.197355105474045,7.9739314654129485
698,1456704149753440,5.366876596815158,7.336385262716789,4.718258690746711,3.6420337310120026,1.912558886951376,1.8834463707386444,11.419098843872872,7.863123004865777
699,1456704149753440,5.573101492872068,7.461501094329364,4.811838793121132,3.5942502856013103,1.8685241475561498,1.8967631970993843,11.60874476684677,7.764029871790712
700,1456704149769440,5.798833790024958,7.565129783677098,4.918787672958761,3.5334598516930456,1.8203301683931683,1.9032422625763852,11.763599993650304,7.674766371734688
701,1456704149769440,6.039389132681725,7.644997019592098,5.038759776950302,3.4602705772493567,1.768517184978677,1.9028383320890765,11.881773385636459,7.593238607935546
702,1456704149776435,6.289819450233342,7.699408388405534,5.171303179375136,3.3755715089687532,1.7136907555622178,1.895673643612758,11.962229483888725,7.51723699409223
703,1456704149776435,6.545042537115029,7.727272373430455,5.31584069338377,3.2805018746289036,1.6565122889670003,1.8820331097446192,12.004813544060752,7.444523597025088
704,1456704149792632,6.799974075973014,7.728099631553185,5.471649029664681,3.1764162810406527,1.5976868932530017,1.8623537102162,12.01024802130815,7.372912437762092
705,1456704149792632,7.049657931692693,7.70198056665783,5.637836351561356,3.064845858957574,1.5379489869877068,1.8372088712274273,11.980103020271567,7.300341500510229
706,1456704149794436,7.289389731335261,7.6495442419716335,5.813319973248836,2.9474559240515217,1.478046328805838,1.807288807057558,11.916744062523096,7.224935737560049
707,1456704149794436,7.514827951238398,7.571902529134909,5.996807213973927,2.826001315916882,1.4187232449485407,1.7733778116904562,11.823260304233992,7.145060465819137
708,1456704149807664,7.7220867215935645,7.470584035252545,6.186782788152096,2.7022809962457375,1.360703881365678,1.736329438248251,11.703375872088738,7.059364038446709
709,1456704149807664,7.907806077908923,7.347462650077991,6.381505563259202,2.5780936052958228,1.3046762707048436,1.697040451809487,11.561346693062804,6.966808127098103
710,1456704149814437,8.069198277825413,7.204685429914101,6.579016525990422,2.4551954909756213,1.2512778778716493,1.6564243773880456,11.40184499781298,6.866684293051343
711,1456704149814437,8.204071753899083,7.044603909294415,6.777158713472017,2.3352623654665083,1.201083106930796,1.615385391452296,11.22983368335238,6.758616894444737
712,1456704149837869,8.310835938715634,6.86971179328946,6.97360885636769,2.2198553937949668,1.1545930760245937,1.574793266962385,11.050433202416036,6.642553846826178
713,1456704149837869,8.388490527657138,6.682590504997563,7.165919807502238,2.1103922686504433,1.1122278192319655,1.535460111348872,10.868784450061087,6.518747368308834
714,1456704149839864,8.43660270668404,6.485862621233687,7.351572689812365,2.008123650336874,1.0743209522718715,1.4981197140042122,10.689911815333513,6.387726575759189
715,1456704149839864,8.45527598525815,6.282152250676753,7.528037774238578,1.9141152026178274,1.0411167582654768,1.463410375477769,10.51859103351489,6.250263299177083
