,timestamp,x,y,z,w
0,1456704146116973,0.00027797945618584645,3.351399496230515e-05,0.00028931765775476806,0.000287819685026317
1,1456704146138479,0.0004204369766087291,2.771000222183213e-05,0.00024402938282357966,0.0003183063526008307
2,1456704146162481,0.0005482923103661626,3.0229028847228078e-05,0.0001988280717636647,0.00033751099358142716
3,1456704146177482,0.0006475155776015702,4.7468884987398163e-05,0.000155088038641376,0.0003366920032188785
4,1456704146198488,0.0007062315800804771,8.19181551098398e-05,0.00011584769495078721,0.0003115839557243401
5,1456704146222999,0.0007174073849057916,0.00013092205977790006,8.532770413846705e-05,0.0002641078658531615
6,1456704146268507,0.0006818013579015781,0.00018661760637136992,6.787729767043854e-05,0.0002029296040804479
7,1456704146277508,0.0006095674985382893,0.00023751838924971066,6.699859928594274e-05,0.00014224045346862815
8,1456704146285508,0.0005189346913353398,0.0002717457302586884,8.482126299474136e-05,9.852422183239504e-05
9,1456704146300511,0.0004315554520632876,0.00028105170985717254,0.00012190429190570279,8.583007862817892e-05
10,1456704146321224,0.00036589160353675353,0.00026406047633633446,0.00017699424658465,0.00011088876745411205
11,1456704146342727,0.0003311953920211385,0.00022718094758545192,0.0002465626881552417,0.00016985724458650316
12,1456704146387010,0.00032453390368536623,0.00018261442714625402,0.00032437799537857724,0.00024826630669784716
13,1456704146387724,0.000332188186867182,0.00014431382310137945,0.00040167557627403933,0.0003248192738427181
14,1456704146402044,0.0003352244742764582,0.0001237236424799454,0.0004684050998786158,0.00037819881734313713
15,1456704146418016,0.0003174093099641118,0.00012695934938798315,0.000515478124059722,0.00039451628292679124
16,1456704146440527,0.000272494649302112,0.00015396744960312892,0.0005371458527478859,0.0003723621844739099
17,1456704146461534,0.00020804877252031073,0.0001991033312646304,0.0005322242450348525,0.0003231919947364465
18,1456704146477544,0.0001444752751132821,0.00025234626220838914,0.0005034978804019366,0.0002667575687263514
19,1456704146508538,0.00010969586982820446,0.0003010161003158001,0.0004560904856286907,0.000223486357765014
20,1456704146522353,0.00013126300018811301,0.0003324185889050042,0.0003965661348497802,0.00020698081891688488
21,1456704146537556,0.0002280962133458174,0.0003374551272992483,0.00033378101373955074,0.0002195275770594717
22,1456704146560559,0.0004037701273041058,0.00031415511421660535,0.0002804841259312372,0.0002520022661855958
23,1456704146582559,0.0006428335491820569,0.0002694366576413097,0.00025324813386158477,0.0002878343748476521
24,1456704146605561,0.0009113596880914177,0.00021786686645139071,0.0002689053899765847,0.00030947791493799153
25,1456704146621598,0.0011624755943110193,0.00017749067564842375,0.0003379882417419045,0.0003051567988368719
26,1456704146641864,0.0013464688805820163,0.00016416504553072925,0.0004581853279819356,0.00027347854503954297
27,1456704146664867,0.0014234661903654627,0.00018660760719459816,0.0006117656575414161,0.00022413401622407023
28,1456704146680865,0.0013754902365846475,0.00024412114074196615,0.0007693606964285866,0.00017443911601940584
29,1456704146701875,0.0012144262630630423,0.0003276491091183344,0.0008991700731564484,0.00014331435391939766
30,1456704146725402,0.0009829428400592198,0.00042314981897386214,0.0009776571613580684,0.00014541509669025696
31,1456704146741165,0.000746726342934242,0.0005154359904520709,0.0009969824267536962,0.00018783499962719366
32,1456704146770094,0.0005788599616144567,0.0005911346195648441,0.00096611244129512,0.0002702119574942939
33,1456704146787124,0.0005404144715641919,0.0006404993007247833,0.0009055960051823529,0.0003870881427370342
34,1456704146800893,0.0006634568611500907,0.0006583384964205258,0.0008387306987542,0.0005303259197225839
35,1456704146822357,0.0009419166229801947,0.0006441770245545966,0.0007829934477711362,0.0006899782476372136
36,1456704146845318,0.0013325298100601984,0.0006016842930167138,0.0007448877125117232,0.0008536216262804287
37,1456704146860318,0.0017647072458058526,0.0005377382575847706,0.0007194775070128158,0.0010054414679874879
38,1456704146882454,0.0021562628804153907,0.0004617266507272924,0.0006940452626621195,0.0011266124238301766
39,1456704146905454,0.002431367260176169,0.0003853298985909097,0.0006543212391065364,0.0011979226686524176
40,1456704146921272,0.002537151882075179,0.00032239345998725226,0.0005914086216038767,0.0012045225181726428
41,1456704146942526,0.0024557973751990697,0.0002881934496873541,0.0005072957487503622,0.0011414691748487362
42,1456704146973311,0.002209701864189489,0.0002976550937709917,0.0004167713897851916,0.0010179199789148202
43,1456704146981311,0.001858472105425334,0.0003627786353805741,0.00034440150344608716,0.0008579550773299574
44,1456704147004448,0.0014879546351440152,0.0004902059370935148,0.0003173014055940481,0.000697156417768488
45,1456704147025263,0.0011929754258427027,0.0006796957481535562,0.0003567016591363212,0.0005756022307769113
46,1456704147041427,0.0010564835848120527,0.000923105622835162,0.0004719947854105836,0.0005290393891022861
47,1456704147063163,0.0011287097489808278,0.0012027865829233417,0.0006592815645038204,0.0005803947803063339
48,1456704147086506,0.0014113076233662084,0.0014896748999126764,0.000903600312831517,0.0007336514981021076
49,1456704147101164,0.0018523580276658962,0.0017438636065174235,0.0011822645597148486,0.000971528852844556
50,1456704147123179,0.002356518647417739,0.0019210493682112221,0.0014672564225828406,0.0012575064957919765
51,1456704147145191,0.0028098957333886213,0.0019855505264127853,0.0017265966145269495,0.0015419249202785843
52,1456704147161189,0.0031132537731821852,0.0019263281660359208,0.0019262978036911505,0.0017713282618948506
53,1456704147190214,0.00321255908742859,0.0017691907800362894,0.0020347502682761046,0.0018995933999080609
54,1456704147205192,0.0031146586876258596,0.0015776203600841642,0.0020300150926610802,0.0018985718137677448
55,1456704147221197,0.0028797896066372346,0.0014374862761761126,0.0019081522287242364,0.001765335143482745
56,1456704147243203,0.002591928050984928,0.0014277604449786335,0.0016886853940012176,0.001523283951996157
57,1456704147265205,0.0023197022205801794,0.001587828159722565,0.0014131444086773555,0.0012158552427322976
58,1456704147281206,0.002087943484764998,0.0018965278528711837,0.001135198970532242,0.0008943614092395477
59,1456704147305207,0.0018758936690882197,0.0022741392487964788,0.0009053582850535656,0.0006044775703946571
60,1456704147324224,0.0016421798735937467,0.002607732191347926,0.0007568274988625231,0.0003767736637689799
61,1456704147341408,0.0013591965937621118,0.0027893307533431943,0.0006988842160573958,0.00022411823962293134
62,1456704147363236,0.0010344718561789293,0.0027512395228247457,0.0007196651492722912,0.00014467740827775368
63,1456704147386414,0.0007077537838229459,0.00248529870856364,0.0007949419334240058,0.00012715588454275043
64,1456704147408238,0.00042965659273657303,0.0020407784601922966,0.0008974866533874256,0.00015589197296083027
65,1456704147423247,0.00023744266972043512,0.001504823159649833,0.0010035701647380004,0.00021518736169748648
66,1456704147445264,0.00014144892531374134,0.0009752436924895931,0.0010960633002559028,0.00029273141162995626
67,1456704147467265,0.00012672103230904834,0.000535936287381696,0.0011649779242431327,0.00038141026942075664
68,1456704147484266,0.00016564333427785232,0.0002414830443675132,0.0012061546581128948,0.0004786436797582054
69,1456704147505271,0.0002327818482764545,0.00011238625388985852,0.0012186026296918018,0.0005834166250323606
70,1456704147528973,0.00031374973198277777,0.0001385400949934253,0.001201504389803431,0.0006926416376473992
71,1456704147542943,0.0004046183881735596,0.00028724502687761807,0.0011525358001216218,0.0007989803286266587
72,1456704147565677,0.000504342329007563,0.0005127989485088892,0.0010687532583439387,0.0008912074044485524
73,1456704147588680,0.0006062947458352282,0.0007659477324856609,0.0009496249476524945,0.000956552188797959
74,1456704147603681,0.0006946293433744224,0.0010022086832627364,0.0008001158528224184,0.0009835982008079686
75,1456704147626189,0.0007478656684063556,0.0011882240412649009,0.0006316603292347161,0.0009647129139752025
76,1456704147648697,0.0007481370435350992,0.0013053041618129567,0.0004604797748193457,0.0008979003998639352
77,1456704147663699,0.0006917376910490336,0.0013496407642969426,0.00030448198020487126,0.0007884054776112005
78,1456704147685700,0.0005957362131339578,0.001329405081784923,0.0001803617884865344,0.000649927874451889
79,1456704147708701,0.0004965613731089394,0.0012597233641957423,0.00010153921881331597,0.0005044044667572277
80,1456704147724215,0.0004394434066484358,0.0011569989144588663,7.657425318190887e-05,0.00037902962564476404
81,1456704147752723,0.00046180890498549347,0.0010342772095042721,0.00010770350717662498,0.0003002285219519004
82,1456704147768724,0.0005774582058467536,0.0008992616864098515,0.00018986017646313612,0.0002862450934559921
83,1456704147783724,0.0007691224267075174,0.0007557032128955608,0.00031101291071889716,0.00034145467601271075
84,1456704147805725,0.0009934656885455212,0.0006072263201131331,0.00045436694397088783,0.00045518957187132904
85,1456704147830931,0.0011962503629086491,0.00046129984797533565,0.0006020770909368441,0.0006056224227889289
86,1456704147844136,0.0013301579925747349,0.0003310500460565965,0.0007391169347016597,0.0007663862952436607
87,1456704147866145,0.0013673611767874077,0.0002338456370515687,0.0008554527250745853,0.000912265989765336
88,1456704147889134,0.0013035370974483658,0.000187236159301043,0.0009453263634669489,0.0010217280284963747
89,1456704147904135,0.0011556012461647989,0.0002041324681489604,0.0010042632345597928,0.0010771254271384322
90,1456704147926176,0.0009574142859135587,0.00028939229495600956,0.0010262047698544963,0.001065389664390177
91,1456704147949192,0.0007553017443968441,0.0004388600700887647,0.0010034262047685972,0.0009812307793043604
92,1456704147970495,0.0006019234163577372,0.0006401406386023089,0.0009303107383874761,0.0008321577861478552
93,1456704147986193,0.0005466383252793921,0.0008734879881989141,0.0008096032531007291,0.000642239173751268
94,1456704148009195,0.000623290402024045,0.0011120109729486397,0.0006577876248202579,0.00045106383938973375
95,1456704148030213,0.0008392503513519248,0.0013222612539500905,0.0005057643394105223,0.0003060663320562317
96,1456704148046221,0.0011698611592475742,0.0014675406674331671,0.000392618313772829,0.0002494510213285309
97,1456704148069223,0.0015605185337501473,0.0015155576240594786,0.0003535717533530162,0.0003039859211725171
98,1456704148090224,0.0019367508379054623,0.0014493488569257446,0.0004065194700525417,0.00046334284587303996
99,1456704148106225,0.002221620259354409,0.0012773722100156003,0.0005428095516590873,0.0006914730854738471
100,1456704148129252,0.0023580448115952256,0.0010376885831028192,0.0007265445567090415,0.0009321414600539941
101,1456704148150260,0.0023303343313113996,0.0007930891503348727,0.0009037089690975144,0.0011257763543107192
102,1456704148166261,0.002176232744879912,0.0006175049669769173,0.0010191114192275226,0.0012279727012520433
103,1456704148188262,0.00198125786868008,0.0005768697481709352,0.0010360333244458144,0.001223330362341341
104,1456704148209263,0.0018526366521368206,0.0007090588475781779,0.0009513338830909405,0.0011298320128237194
105,1456704148225814,0.0018792596259757269,0.0010084434821041033,0.0007990243371795281,0.0009919823807741277
106,1456704148249375,0.0020930445985278823,0.0014210698593054606,0.0006390946973836092,0.0008646488153951028
107,1456704148270390,0.00245048928825296,0.001854775801139333,0.0005347976261201525,0.000793129529135402
108,1456704148286388,0.0028463140415262286,0.00220364632347518,0.0005275349804849524,0.0007970863637340032
109,1456704148309392,0.0031551990971414945,0.0023800205651123615,0.0006203354324699237,0.0008649748592351897
110,1456704148330028,0.003282151904120938,0.00234319150047911,0.0007772429257324942,0.0009611221631960608
111,1456704148345544,0.0031975475731115485,0.0021140215667744687,0.0009386527693516272,0.0010417254662189964
112,1456704148368500,0.002941537020509319,0.0017689259970592335,0.0010455165179909529,0.0010721008909568733
113,1456704148389710,0.0025980438762481673,0.0014138350222966324,0.0010617404306218427,0.0010375933881614087
114,1456704148405501,0.0022530246371848823,0.0011468594225387204,0.0009855172771087433,0.0009443620557869758
115,1456704148429716,0.001958890324349787,0.001024245214860938,0.0008459443348472599,0.0008117286346945645
116,1456704148452430,0.0017228028461434028,0.0010438064670937144,0.0006882202073443705,0.0006619851090037726
117,1456704148466431,0.0015215871027539707,0.0011520390522162828,0.0005553325648897734,0.0005137138963392754
118,1456704148489432,0.00132914440205659,0.0012698693004517825,0.00047417800400891837,0.00038053261476564783
119,1456704148512435,0.0011362063972326579,0.0013243756254358065,0.00045020027396013403,0.00027248714774933547
120,1456704148525949,0.0009515682851749841,0.0012733278106720602,0.0004700125334874213,0.00019643032783382073
121,1456704148548459,0.0007895837833269449,0.0011146564300902172,0.000508930199015086,0.00015454812673177973
122,1456704148571458,0.0006572393334806454,0.0008804317660050867,0.0005402006734415294,0.00014287898845576996
123,1456704148585459,0.0005505248957220827,0.0006209412725599249,0.0005433943257052201,0.00015175197999412962
124,1456704148608492,0.0004601412320539395,0.0003865621431171303,0.0005098527309035105,0.00016848758226812493
125,1456704148631978,0.00037996826995283234,0.00021348107859298006,0.0004437189173607675,0.0001813307410758331
126,1456704148645484,0.0003118363014890188,0.00011625766727481103,0.000358555190151552,0.00018303853507862012
127,1456704148668486,0.0002641732549788343,8.777697388345688e-05,0.0002713631234262124,0.00017259811563843027
128,1456704148691487,0.0002459469486649234,0.00010548634116374889,0.00019671184340586681,0.00015421913119931919
129,1456704148705488,0.0002594718342792171,0.00014140868361735967,0.0001431349464455095,0.00013409637336284156
130,1456704148729207,0.00029616112817767954,0.00017236260873723365,0.00011255024910828637,0.00011678023520035731
131,1456704148751464,0.0003379417358144707,0.00018675304494495022,0.00010204838911391377,0.00010322118250652559
132,1456704148766429,0.00036400014732594047,0.00018568180967530612,0.00010656666764817985,9.139960292702314e-05
133,1456704148788461,0.00035944144553721547,0.0001786564579278696,0.00012101372559083778,7.879358899105285e-05
134,1456704148812432,0.00032139403968751425,0.00017662045953091996,0.00014122315752612257,6.492296219234295e-05
135,1456704148826373,0.00025973755183879873,0.00018596593596147077,0.0001640453143836028,5.238854281435989e-05
136,1456704148848638,0.00019266967535324666,0.00020615756065816713,0.00018723305519899422,4.5914305224930665e-05
137,1456704148871639,0.00013966902892350954,0.00023137494311332483,0.0002094419333433794,5.007988180664067e-05
138,1456704148885639,0.00011489736860139892,0.0002544990158719322,0.00023017600696435188,6.699666678929963e-05
139,1456704148908640,0.0001231339498506174,0.0002708962551031072,0.0002493955496238144,9.499495830653754e-05
140,1456704148932149,0.00015902724929091317,0.0002800839061391123,0.00026679698875094323,0.00012877151533873392
141,1456704148953156,0.00020940274201628332,0.0002848469711472132,0.00028111709912682236,0.00016080619601640156
142,1456704148969157,0.000257663697085944,0.00028866567872169166,0.0002898826516820565,0.0001834703732337658
143,1456704148992350,0.00028892534851933827,0.0002928542793724662,0.00028982570983262325,0.00019116892277431857
144,1456704149013161,0.00029435010937074816,0.00029482574947436297,0.0002779247078964173,0.00018193332798111805
145,1456704149028963,0.0002732281771424934,0.00028860051935613283,0.0002528252864019012,0.0001579972018470484
146,1456704149051270,0.0002320152651136957,0.0002677899099124245,0.0002161794356753107,0.0001251178945965183
147,1456704149073271,0.00018093977892276027,0.0002297679123957914,0.00017323588162835985,9.08492859277183e-05
148,1456704149088454,0.00013012879386090938,0.00017861462421860078,0.00013210015296516328,6.243518691714376e-05
149,1456704149112273,8.725509690860465e-05,0.0001249365067926682,0.00010169351404539913,4.5129972703967016e-05
150,1456704149133802,5.733873126024304e-05,8.266035538918806e-05,8.927030538751248e-05,4.1460516792761484e-05
151,1456704149148803,4.384102858935326e-05,6.46655336558927e-05,9.86897426827073e-05,5.147272884416688e-05
152,1456704149170804,4.977941279680094e-05,7.935313778910118e-05,0.00013014512949244955,7.363918306992711e-05
153,1456704149192804,7.812988132577417e-05,0.00012923248410856317,0.00018115372449136055,0.00010592401247638563
154,1456704149208806,0.00013137720076990072,0.00021138712886866859,0.0002479672474209092,0.00014649249221424386
155,1456704149230820,0.00021028489999686675,0.00031892941332967335,0.00032648636168516046,0.0001937201877684278
156,1456704149252330,0.00031202977853268994,0.00044240555276953597,0.0004121804065819772,0.00024547816909421626
157,1456704149268332,0.00042815551488810096,0.0005705161674116607,0.0004991783187171421,0.00029804716718938583
158,1456704149290333,0.0005433943503395579,0.0006902944821136241,0.0005792917273879413,0.0003453040615294453
159,1456704149312334,0.0006368729731739455,0.0007876600830388543,0.0006419737613590033,0.0003789055261747384
160,1456704149328990,0.0006869363749765435,0.0008495381483974778,0.0006759951327543334,0.00038999524419580347
161,1456704149350546,0.0006794695348020423,0.0008681546507984492,0.0006730005707507817,0.0003724686379031914
162,1456704149373547,0.0006174939908770073,0.0008467457467999963,0.0006322116102087475,0.0003270775702191074
163,1456704149388548,0.0005278479321152408,0.0008042633988448935,0.000564544576625393,0.0002647960039225511
164,1456704149410551,0.000460051031716459,0.000775574755392913,0.0004937603283232979,0.00020730095752016892
165,1456704149433562,0.00047406621123214244,0.0008041445020963335,0.00045263251569187723,0.00018279060518240406
166,1456704149448569,0.0006180911886840158,0.0009269583982645325,0.0004739055393988554,0.0002171062993690893
167,1456704149470570,0.00090371805135601,0.0011560591659075742,0.0005784915628368748,0.000322825423494517
168,1456704149493571,0.0012905663588153144,0.0014652058222670466,0.0007654275827802337,0.000491136212537764
169,1456704149508572,0.0016915776730362516,0.0017903259215921697,0.001008078464138259,0.0006911516101220675
170,1456704149531045,0.002001615338979769,0.002046874165332173,0.00125884435916692,0.0008783798754584664
171,1456704149553510,0.0021392152353280963,0.002158653965085531,0.0014615988765123078,0.0010097398524839412
172,1456704149568511,0.002082056206460736,0.0020865527620737468,0.0015685200106096903,0.0010591162720595625
173,1456704149592513,0.001877718942209053,0.0018453891264879987,0.0015561892592980747,0.0010267615373679804
174,1456704149613514,0.0016228929565125741,0.001501931347123574,0.001435143714854849,0.0009382542848645902
175,1456704149628929,0.001419963701431917,0.001154270339706108,0.0012483543537883822,0.0008331864936388783
176,1456704149650417,0.0013313772615591343,0.0008995113354899707,0.0010577537852203588,0.0007483147119873437
177,1456704149673419,0.0013536897792916734,0.0008012661433104834,0.0009228809520880982,0.0007026283378540656
178,1456704149688419,0.0014238996275300253,0.0008690207978686602,0.0008797338180842667,0.0006913462860936513
179,1456704149712421,0.0014544421953482706,0.0010571774005585458,0.0009286313764649454,0.0006917936264392376
180,1456704149733429,0.0013782165472111735,0.0012835879865691349,0.0010361398765994481,0.0006777424006230008
181,1456704149748434,0.0011802358691549728,0.0014593735487720518,0.0011495034130201002,0.0006338787968537798
182,1456704149770435,0.0009012949977065263,0.0015178951361031047,0.0012164544935008986,0.0005623844513016103
183,1456704149793436,0.0006153893145588203,0.0014326201162112688,0.0012020194875804859,0.0004790987184105728
184,1456704149808437,0.0003955976056166936,0.0012195143312837312,0.0010969308588084268,0.00040313434250542076
185,1456704149838865,0.00028573845143348907,0.0009259461437247236,0.0009167954467011397,0.0003467922192687363
186,1456704149853866,0.00028848668119939704,0.0006122753661328891,0.0006945337839671673,0.0003110291845046788
187,1456704149868866,0.0003710025367215886,0.000333526183759791,0.0004697968533409205,0.0002875771814417365
188,1456704149890868,0.0004820711105677757,0.00012702853561951503,0.0002786242616695443,0.0002651164977018212
189,1456704149913870,0.000572395035502078,8.451517129927599e-06,0.00014558926053585887,0.0002356299810330088
190,1456704149934959,0.0006110446537434861,-2.5109795497486168e-05,7.976008956536948e-05,0.00019812449678380858
191,1456704149950954,0.0005938392534009715,1.1458754510998374e-05,7.50011086371184e-05,0.0001588166251218794
192,1456704149974956,0.0005420291380285929,9.788514123901647e-05,0.00011415798776750947,0.000128351722545356
193,1456704149995257,0.0004920833606262411,0.00021313963189361767,0.00017555536188915748,0.00011740340573953321
194,1456704150010956,0.0004801391512493307,0.00033785737830388654,0.0002395052005135494,0.00013234276633925952
195,1456704150033966,0.000527057940498974,0.0004553123636630672,0.0002927240042656613,0.00017260276864374913
196,1456704150055305,0.0006302397944965817,0.0005518393623099982,0.0003296743987241068,0.00023071627385494556
197,1456704150070975,0.0007653352419525308,0.0006173093418286532,0.00035121602149588825,0.00029486562081722933
198,1456704150093976,0.0008962244289994279,0.0006458420580853364,0.00036176706173200415,0.00035268630000737317
199,1456704150114978,0.0009881368975362323,0.0006364360815735871,0.00036619836941658996,0.0003946514640595203
200,1456704150131021,0.0010183762667283723,0.0005928983330892438,0.000367339052734814,0.00041581988380889716
201,1456704150154249,0.0009812215500341552,0.0005227567839977131,0.00036470485367730976,0.0004156751223822399
202,1456704150175247,0.0008865303192081048,0.00043552743715123666,0.00035480979703398784,0.000396654088257567
203,1456704150191250,0.0007539890848236395,0.00034107409857313644,0.0003329679721942772,0.0003624003351043932
204,1456704150214242,0.0006060850287877116,0.00024855076502397006,0.00029592668396175443,0.00031667814614953104
205,1456704150234401,0.00046258243957292673,0.00016592668029998596,0.000244291903226665,0.0002633426715446611
206,1456704150251409,0.0003380247439536165,9.98212860943081e-05,0.00018370832622307794,0.0002070725127159784
207,1456704150274408,0.00024222522193862155,5.5421511803657225e-05,0.00012418436435286082,0.00015411968299969844
208,1456704150295409,0.00018242353613167643,3.643602386232362e-05,7.772382313700203e-05,0.00011234630012222125
209,1456704150311410,0.0001652427358286312,4.513984427690152e-05,5.5227962680846286e-05,9.023381982257331e-05
210,1456704150334138,0.00019708549007278772,8.249865738863152e-05,6.39603945737799e-05,9.511556371520528e-05
211,1456704150357147,0.00028279436489304986,0.0001482170695308471,0.00010643121653874752,0.000131293275909483
212,1456704150371148,0.00042327860035081504,0.00024045050275506936,0.00018064218157423008,0.00019870949446461488
213,1456704150394149,0.0006128798644982636,0.0003549649551159664,0.00028090760153111376,0.000292474713809114
214,1456704150417150,0.0008370886143459585,0.00048383393265182055,0.0003984073580825143,0.0004031389282943109
215,1456704150431162,0.0010715126787009086,0.0006143087515478599,0.0005212166307218158,0.0005175136161365857
216,1456704150453456,0.0012835308787787086,0.0007289934380276474,0.0006343748585629528,0.000620100992872789
217,1456704150476456,0.0014380117090313626,0.0008084733933671325,0.0007210774791534358,0.0006954528612620198
218,1456704150491457,0.0015072539436829856,0.0008368361227433576,0.0007659085504176586,0.0007317022892543288
219,1456704150520044,0.001483036120666706,0.0008091452384323646,0.0007600873581142653,0.0007249059789897101
220,1456704150536534,0.0013861940671832233,0.0007382632467938634,0.0007072638296485346,0.0006828377909881579
221,1456704150550535,0.001267892990940004,0.0006572115590895764,0.0006271229326445734,0.0006260514435094664
222,1456704150574536,0.0011982736958464988,0.0006135441142166125,0.0005537984443236113,0.0005842215447862378
223,1456704150596538,0.0012430922531938456,0.0006547754775728941,0.0005275078626923687,0.0005874652116534217
224,1456704150610538,0.001435905358486887,0.0008084169049618299,0.000580851809392016,0.0006550559128719239
225,1456704150634049,0.0017585328596091796,0.0010646468232477161,0.0007246737031114846,0.0007862090461234183
226,1456704150656556,0.0021415139742897876,0.0013710545322358702,0.000940071943987889,0.0009577302372424684
227,1456704150671556,0.0024874734755416486,0.0016452252981241533,0.0011813726893505705,0.0011305457839379427
228,1456704150693558,0.002708069295745078,0.0018030554503797053,0.0013901001703205459,0.001262809170559185
229,1456704150716560,0.0027575778728723163,0.0017923227744917566,0.001514846469468203,0.0013241164798627294
230,1456704150738578,0.0026479090095555984,0.0016168013089507016,0.001529193877306752,0.0013051070443013965
231,1456704150753579,0.0024387398910924864,0.0013389233481552133,0.001440642969886891,0.0012188810638430185
232,1456704150776580,0.00220736922164824,0.0010578911723574066,0.0012871485653306416,0.0010937979158695949
233,1456704150798581,0.0020120971503882045,0.0008712473650435317,0.0011226039602344657,0.0009605097106937114
234,1456704150813583,0.0018672727618553994,0.0008360126644578138,0.000996740883961315,0.0008389962156012745
235,1456704150836660,0.0017436127444362928,0.0009464034013189501,0.0009372629453474764,0.0007323671038984076
236,1456704150857697,0.0015933619509418899,0.0011378775707144497,0.0009416202983852349,0.0006312231072345601
237,1456704150873728,0.0013842988492207193,0.0013152002054529354,0.0009819108340618317,0.0005257993465318042
238,1456704150896663,0.0011216347961819952,0.0013914308232278615,0.0010199039929847215,0.00041748686282562785
239,1456704150917663,0.0008466118488697075,0.0013205050141587304,0.0010238666278313108,0.00032169942448434096
240,1456704150933705,0.0006162546988641821,0.001110256122360535,0.0009788251483765255,0.0002603832739307748
241,1456704150956676,0.0004779059129816656,0.0008128677848817296,0.0008871569617310815,0.00024945985680539903
242,1456704150977678,0.0004507874753592722,0.0005002522802288816,0.0007624488649128874,0.0002890401117754596
243,1456704150993878,0.0005200661363983786,0.0002371345666401642,0.0006219606925611093,0.0003615992503051686
244,1456704151016898,0.0006430985808454911,6.272331682115139e-05,0.00048139492629173,0.00043830118915765253
245,1456704151038890,0.0007644163106274331,-1.463724689916268e-05,0.00035273909214748867,0.0004896906308888896
246,1456704151054103,0.0008342169865187927,-1.1855993598162108e-05,0.00024416901257873376,0.0004957892191500266
247,1456704151077105,0.000824128489041788,4.026361119227377e-05,0.00016076787164045483,0.0004519492269173124
248,1456704151097912,0.0007348392619715772,0.00010902495680348658,0.000105266928608981,0.0003691536885330678
249,1456704151113894,0.0005933344367978905,0.00016906726191651356,7.846568746946513e-05,0.0002694849366180193
250,1456704151136194,0.0004415815259666639,0.00020721986031252155,7.932870964787825e-05,0.00017873131566235314
251,1456704151158319,0.00032145492869425625,0.000222811041759922,0.00010497837768484558,0.00011860179187106161
252,1456704151174316,0.00026136868538270745,0.0002242829697504681,0.000150779255408885,0.00010085850791023534
253,1456704151195312,0.0002687913538503801,0.0002236284795202833,0.00021048938268260098,0.00012492895478647244
254,1456704151218199,0.00033039554291670284,0.00023053441417937717,0.00027638217051858405,0.00017938232776776222
255,1456704151234402,0.0004188766854351586,0.0002481610230770786,0.0003395019554262151,0.0002463926355129082
256,1456704151256374,0.0005033465275706015,0.0002720003326408499,0.0003904815196832067,0.0003074642553204194
257,1456704151278385,0.0005594407716041733,0.000292119341381301,0.0004211735537997505,0.0003485892255145191
258,1456704151293385,0.0005759406795427297,0.0002976745624505734,0.0004267418164836258,0.0003634770440476907
259,1456704151315402,0.0005561641313923757,0.0002816255617042635,0.0004072865103419016,0.0003541418625025258
260,1456704151338386,0.0005140998097492249,0.0002436102341568902,0.00036801134248937677,0.00032880586437595763
261,1456704151353324,0.00046705760351876236,0.00018992301801768442,0.0003175322872397362,0.00029788297259635704
262,1456704151375380,0.0004280131182594139,0.00013092161538692142,0.00026492538052611745,0.00026960480791141475
263,1456704151398328,0.0004009285978183476,7.727388594765727e-05,0.00021689030858763143,0.00024712429608254096
264,1456704151414328,0.0003807817903460221,3.673744324699104e-05,0.00017636356299472817,0.00022828679393653602
265,1456704151436347,0.0003576847606283304,1.2619799172698943e-05,0.00014304514006580947,0.00020793176382341024
266,1456704151459181,0.0003226925454259084,4.136989002038853e-06,0.00011525166498773976,0.00018135282862445526
267,1456704151473379,0.00027250331145016335,8.096705038511605e-06,9.195053654382032e-05,0.00014712982699829436
268,1456704151495377,0.0002112097477809858,2.0950864409091893e-05,7.396063142235502e-05,0.0001081278159439907
269,1456704151518377,0.0001489165897345896,4.0332258941242586e-05,6.390316876893077e-05,7.057038947888209e-05
270,1456704151534349,9.845229701001206e-05,6.563421140185006e-05,6.518645275566783e-05,4.200864351269436e-05
271,1456704151555711,7.192372517427602e-05,9.776462778856962e-05,8.076203055925818e-05,2.927415292182042e-05
272,1456704151578712,7.848560565162991e-05,0.00013853247567503842,0.00011236895789699619,3.718406092136543e-05
273,1456704151593712,0.00012379578997439843,0.00019002116215210694,0.0001605141824211279,6.819179636350686e-05
274,1456704151615988,0.00021060017879522819,0.00025395305383511027,0.00022484028094927537,0.00012265381400922468
275,1456704151639657,0.00033916766800089204,0.0003307903977875625,0.0003042185421353358,0.00019910916523895034
276,1456704151653658,0.0005063287309441171,0.000418381451829955,0.00039608321538645773,0.0002940495118316977
277,1456704151675888,0.0007028300990997903,0.0005103907045699355,0.0004950858840528399,0.00040107662469749235
278,1456704151698661,0.000910215951228781,0.0005953609755691787,0.00059179413735801,0.0005099316672793073
279,1456704151713663,0.0010996707274343583,0.0006576286342752502,0.0006725487076253429,0.0006063414035237923
280,1456704151735546,0.0012354057936678005,0.0006810158072868662,0.000721468199777258,0.0006736630317407034
281,1456704151749596,0.0012838205004426398,0.0006551093819482357,0.0007248562010705429,0.00069677021863847
282,1456704151771842,0.0012269754912073787,0.0005823452187327173,0.0006770842313268971,0.0006675956511829433
283,1456704151795557,0.0010757674919651397,0.00048282150347503426,0.0005858630762780341,0.0005905680737597964
284,1456704151809564,0.0008761660629498715,0.00039363120050411795,0.00047432285824847696,0.0004854026739513617
285,1456704151832069,0.0007026731758699625,0.00036097651788555534,0.0003779642858899897,0.00038494025041462714
286,1456704151854582,0.0006375898426655371,0.00042610204398071185,0.0003362549663899643,0.0003273117243145209
287,1456704151869620,0.0007415630705724554,0.0006091573215531898,0.0003808320676895483,0.0003442217389157891
288,1456704151891586,0.0010269667124370473,0.0008971170898206122,0.0005240330510432692,0.00044939218451921947
289,1456704151915844,0.0014469833744977232,0.001241593111572212,0.0007518808892766511,0.0006318321443321695
290,1456704151929806,0.0019077500120219905,0.0015692885525361066,0.0010243759384555343,0.0008570642680091133
291,1456704151951747,0.0023004842989205387,0.0018029500550167056,0.001283735380345681,0.0010764167554816809
292,1456704151974534,0.002540576289976182,0.001886170064364189,0.0014690675622487037,0.0012414020755067618
293,1456704151989606,0.0025969655767352873,0.0018033442940845322,0.0015340456703588777,0.0013183287984755822
294,1456704152011751,0.002499640022489861,0.001587193740213448,0.0014624088647269128,0.0012981953131974502
295,1456704152034973,0.0023227317005902093,0.001310018696823656,0.0012754918971310744,0.0011984415426180665
296,1456704152050295,0.0021505087215434966,0.0010604123813450898,0.0010277622335852009,0.0010557645767263993
297,1456704152072268,0.002040289841215226,0.0009131728158321568,0.0007905405154073302,0.0009123164175182689
298,1456704152095284,0.001998379283963451,0.00090393085738285,0.0006290277087847615,0.0008004409816401475
299,1456704152110355,0.0019807764979278314,0.0010185987601121036,0.0005811295728475351,0.0007324317405477853
300,1456704152132067,0.0019190317681302396,0.0012010974300400595,0.0006464398806239212,0.0007000219150510174
301,1456704152154875,0.0017579143710464305,0.001374886852690608,0.0007895369905428345,0.0006832800479413388
302,1456704152169627,0.001484733094463955,0.0014691204788740066,0.0009552162423324205,0.000663176347742424
303,1456704152191802,0.001135635988591369,0.0014401864133771762,0.0010881647880299971,0.0006304524825854929
304,1456704152214802,0.0007779695462612503,0.0012824985572649594,0.0011489075944406762,0.0005867611258208191
305,1456704152229882,0.0004802312108068036,0.0010266268204159362,0.0011213303859815033,0.0005393868792189587
306,1456704152252351,0.0002853616139063001,0.0007268725917440216,0.0010117540563136292,0.0004942635356213877
307,1456704152275179,0.0001986871100188804,0.0004433569621100977,0.000842599026002804,0.0004518238970008291
308,1456704152290181,0.00019303436303547434,0.00022486001551232605,0.000644294371192909,0.00040752168539585893
309,1456704152312347,0.0002255329387028904,9.763067008321046e-05,0.00044802339440211245,0.00035581425106215076
310,1456704152334928,0.0002567826402040764,6.264205635772886e-05,0.00028037553190351903,0.0002946974809877192
311,1456704152349438,0.0002641503006469681,0.00010057920412275295,0.0001599053351853738,0.00022809768209674624
312,1456704152371442,0.0002453306802461876,0.00018150826057769634,9.532091626000074e-05,0.00016499949007633665
313,1456704152394649,0.0002131799528344235,0.0002752994752651114,8.526988859388279e-05,0.00011601589304841655
314,1456704152409699,0.00018604145700462733,0.0003594043785629458,0.00011985082704250834,8.925204112853907e-05
315,1456704152432330,0.00017856189274758271,0.00042212319745888724,0.0001836685189642272,8.742299151966621e-05
316,1456704152455165,0.0001966063198535683,0.00046142783949748784,0.0002596785925435314,0.00010739414014816145
317,1456704152470166,0.00023724142624285475,0.00048098692140666676,0.00033275415262145686,0.00014205978272509436
318,1456704152492315,0.0002922547433548495,0.0004856954816167668,0.0003921148671409753,0.00018338464766510571
319,1456704152515168,0.0003525260718867689,0.00047861965919819614,0.00043227856035798725,0.0002250552666718308
320,1456704152529963,0.0004110295200458475,0.00046018067337490746,0.00045265053805460746,0.0002636461400783672
321,1456704152551836,0.00046360500224736816,0.0004292434728888397,0.0004561008633693082,0.000298128182709931
322,1456704152575198,0.0005079199465867444,0.000385085660322363,0.00044700696679250517,0.0003283628720991508
323,1456704152590134,0.0005417067188890138,0.00032917016419282155,0.00042935512020764947,0.000353546183039755
324,1456704152613843,0.0005614156401141475,0.0002660186404978937,0.00040549610658051485,0.0003713675977471167
325,1456704152635146,0.0005620767338910929,0.00020293854255554476,0.00037591332613781946,0.0003781835525231587
326,1456704152650140,0.0005386019480856473,0.00014868198241522324,0.0003399629848294688,0.0003700712741002273
327,1456704152672141,0.00048815829807683517,0.00011134532538741646,0.00029719090925529456,0.00034437384921791764
328,1456704152695143,0.0004127348113072493,9.609922722631084e-05,0.00024865522352067004,0.0003012297440541337
329,1456704152710144,0.00032071850197139067,0.0001036015980795359,0.0001977119735900111,0.00024453362052100693
330,1456704152732163,0.00022642302047635302,0.00012987701479446844,0.00014992630624717954,0.0001818621699534796
331,1456704152754973,0.0001473168452581379,0.00016788897960464286,0.0001121112149106012,0.0001232316119018752
332,1456704152769965,9.991537592351792e-05,0.000210253290410955,9.088064883391396e-05,7.906497244448752e-05
333,1456704152792254,9.610812281977895e-05,0.00025197641591727165,9.136320940406447e-05,5.813725782058562e-05
334,1456704152815233,0.0001414343184204421,0.0002920023452583034,0.00011664054887864515,6.62550122457131e-05
335,1456704152837901,0.0002356292390568295,0.00033277422191176504,0.00016798073078356693,0.00010598963836513544
336,1456704152851574,0.0003743812187074123,0.00037789902953100753,0.00024531131021568003,0.00017714290741522448
337,1456704152874570,0.000550547183937052,0.0004289934231975998,0.0003471201948744136,0.0002771543623401743
338,1456704152897720,0.0007536560254390467,0.00048328325211682355,0.0004693525457476607,0.0004007473366204477
339,1456704152912571,0.0009681612004594882,0.0005332102577693563,0.0006036782407619226,0.0005388221399336764
340,1456704152935298,0.0011724792801918282,0.000568476234712857,0.000736256469536898,0.0006775046231163629
341,1456704152957591,0.001341155574961419,0.0005801428003084827,0.0008483923990762633,0.0007986996806876712
342,1456704152971597,0.001451163907635073,0.0005657483570904437,0.0009200495397980257,0.0008831402328236644
343,1456704152994598,0.00149103419050932,0.0005337439736071922,0.000936090284519431,0.0009158900253911357
344,1456704153017937,0.0014692665653244159,0.0005049760238735111,0.0008936354326710171,0.0008929009721539592
345,1456704153032388,0.0014172835359440915,0.0005090578011240571,0.0008075571230515729,0.0008259643746237687
346,1456704153054704,0.0013830020940284826,0.000574991971320174,0.0007106313288897376,0.0007429243679605065
347,1456704153078005,0.0014148652414630659,0.0007183727787637309,0.0006461595217704766,0.000681238761071818
348,1456704153091999,0.0015420155103869665,0.0009305855494140121,0.0006541184996648781,0.0006760497404798836
349,1456704153115062,0.0017603412079194472,0.001176200266018061,0.0007557066518948104,0.000747289830368244
350,1456704153137798,0.0020319923599974622,0.0014016249209141613,0.0009429440139650209,0.0008913921556150812
351,1456704153152090,0.002298287099637425,0.0015523734289635245,0.0011782037796322256,0.0010809362020773405
352,1456704153174800,0.002499210686516775,0.0015917512780735184,0.00140433933596688,0.0012720512428940865
353,1456704153198127,0.002591956948745871,0.0015133891051592194,0.0015620392481154443,0.0014171043166359735
354,1456704153212097,0.0025639141183234873,0.0013435156294853002,0.0016088030690780116,0.0014792507387873415
355,1456704153234808,0.0024371175900634867,0.0011330708687747099,0.0015334638618732133,0.0014446597058648941
356,1456704153257831,0.00226111781221896,0.0009423811601755791,0.001361141989899022,0.0013277943129417888
357,1456704153271826,0.002093476837777255,0.0008226357316068135,0.0011460633837326363,0.001166486553600618
358,1456704153303830,0.0019738032863577796,0.0007998308095430693,0.000953776801882082,0.0010074588559057277
359,1456704153317833,0.001904274159403862,0.0008669854045683596,0.0008387336015175717,0.0008880335868614078
360,1456704153332242,0.0018493275257354834,0.0009876211212874574,0.0008257676417420704,0.0008227727989192006
361,1456704153354996,0.0017566025377039165,0.0011088547006464302,0.0009029126409341251,0.0008016795901811798
362,1456704153377997,0.0015872257242742578,0.0011789445056066853,0.0010281623893142228,0.0007998436925081707
363,1456704153391988,0.0013376726967748722,0.0011632231714432068,0.001146505052423919,0.0007918134662374635
364,1456704153414926,0.001042079558525123,0.0010535274949468355,0.0012093794766881796,0.0007624742048532581
365,1456704153437918,0.0007565289140997068,0.0008687250057054404,0.001188853437801574,0.0007100594833113834
366,1456704153451584,0.0005356789558232386,0.0006469829037020946,0.0010825870238324938,0.0006422099861547887
367,1456704153474948,0.00041293742358587834,0.00043292512260142995,0.0009102196540508557,0.0005691084115139431
368,1456704153497580,0.0003908226162012276,0.0002640103348201958,0.0007046537847262539,0.000497817515607257
369,1456704153512580,0.00044281218891062385,0.0001603508984249734,0.000502043563171161,0.00043014130409828484
370,1456704153535091,0.0005243410313931806,0.00012097802557823039,0.00033309024471664986,0.00036410366883484114
371,1456704153557432,0.0005887058412443421,0.0001273727447490376,0.00021697986807195528,0.0002975052041753675
372,1456704153579427,0.00060278823811093,0.00015246888951915173,0.00015868800857217388,0.00023136944533221166
373,1456704153594763,0.0005576162055738808,0.00017137008720262924,0.00015000782365387586,0.00017141630123619265
374,1456704153617730,0.0004702621958279415,0.00016968479733094904,0.00017388539859377762,0.00012677412148317063
375,1456704153632222,0.0003764778701896796,0.00014682127560416454,0.00021062302723179208,0.00010653104959293977
376,1456704153654846,0.0003168604494635152,0.00011396251091826354,0.0002439376895333129,0.00011581545908810954
377,1456704153677554,0.0003217541038412938,8.847001887471001e-05,0.0002650310458458354,0.00015329678511879832
378,1456704153691735,0.00040049674616820933,8.723376844966212e-05,0.0002735401422880288,0.0002111912317315168
379,1456704153714660,0.0005388789736071587,0.00012101464211148413,0.00027533181593839055,0.00027759970584379114
380,1456704153737656,0.000705305910572911,0.00019092152745863033,0.00027835375989277035,0.0003400620526604561
381,1456704153751666,0.0008624411594751872,0.00028759372120999287,0.00028853536217731605,0.00038891339024207174
382,1456704153774668,0.000979004012022828,0.00039335300359302387,0.00030744111630806045,0.0004192716334059358
383,1456704153797948,0.0010371306671952494,0.00048690951715413657,0.0003321873247053147,0.0004311011042289799
384,1456704153811896,0.001033608086706176,0.0005491217198237605,0.00035693666711508786,0.0004276034867588084
385,1456704153835111,0.0009763249574846267,0.0005677626646133076,0.0003748622890149769,0.00041285898760701635
386,1456704153858226,0.0008788332257440451,0.0005399090258371566,0.00037982563645864856,0.0003898434124459063
387,1456704153872105,0.0007556911959400336,0.00047184957790492583,0.0003675855518286436,0.0003596165632069887
388,1456704153895300,0.0006199731502082024,0.0003772162651036415,0.0003366828148452909,0.00032185867884734613
389,1456704153918301,0.0004829035279151957,0.0002740865586728313,0.0002891294328220288,0.00027635228446431484
390,1456704153932285,0.0003546532508847733,0.00018159311976478898,0.00023081385707745476,0.0002246694377864788
391,1456704153955640,0.0002451525543192297,0.0001165300161379668,0.0001713126210825935,0.0001712853747862355
392,1456704153977648,0.00016420620668185272,9.055928785831998e-05,0.0001227670267745308,0.00012357976248458075
393,1456704153991643,0.00012090357793917811,0.00010867522980670168,9.775481684682098e-05,9.064018999530784e-05
394,1456704154014644,0.00012285174940745592,0.00016933610319773968,0.00010660352311910722,8.130538957921308e-05
395,1456704154037757,0.00017573045420808176,0.00026605595133100953,0.00015505755767868763,0.00010223013431657935
396,1456704154059766,0.00028305940647458517,0.0003895543283541837,0.00024318661013080005,0.00015666401813247443
397,1456704154075063,0.000445457818472183,0.0005292928345249393,0.00036571752014343564,0.00024410098674631923
398,1456704154097767,0.0006587782955404412,0.0006736718223752258,0.0005130453088436196,0.0003603537455285194
399,1456704154120051,0.0009113889727388376,0.0008091536949204793,0.0006718975734231986,0.0004974438095663863
400,1456704154134937,0.0011819458326115138,0.0009196056366843274,0.0008253719309055538,0.0006431555891401492
401,1456704154157022,0.0014396045182345153,0.0009875865617271094,0.0009532577327852811,0.0007808909779677575
402,1456704154189023,0.0016484356766876724,0.0009986896095824194,0.0010341906616405199,0.0008910358558260696
403,1456704154195023,0.0017766219595881415,0.0009484325626399732,0.0010506754329453214,0.0009548933856669655
404,1456704154217199,0.0018087941717622982,0.000849209953907505,0.0009964386431318012,0.000961103447641391
405,1456704154240134,0.001757180510064749,0.0007334735407617818,0.0008835816292103833,0.0009126466162095423
406,1456704154254880,0.001665490158718892,0.0006495426391071011,0.0007456224777636169,0.000830965504006407
407,1456704154276846,0.0016004021200405124,0.0006488439168514198,0.0006328824943946348,0.0007536639065993773
408,1456704154300057,0.0016301968546443117,0.0007675274790646134,0.0005993163038916851,0.0007244077663337665
409,1456704154314982,0.0017972338550086412,0.0010092784118990162,0.000683996069062001,0.000777499948346239
410,1456704154336609,0.0020965632921550875,0.0013370237191407772,0.000894017582389297,0.0009231406224173966
411,1456704154360123,0.0024721072118954737,0.0016782264336698636,0.001196474877232179,0.0011401828292597468
412,1456704154374124,0.0028335889265740403,0.0019435311402823583,0.0015244098417841428,0.0013802564802580966
413,1456704154404126,0.0030870361815313434,0.002054145230087258,0.0017961888418496607,0.001582104481477231
414,1456704154419127,0.0031662496667002266,0.001970033013274606,0.0019419830757348355,0.0016908993587104366
415,1456704154434633,0.0030539180411288374,0.0017086900711209862,0.0019276239187412203,0.001675942811506027
416,1456704154457193,0.002785564764917953,0.0013448953594091225,0.0017667176636939929,0.0015409763694180778
417,1456704154480145,0.0024345261964742074,0.0009880130058704231,0.0015162906433719783,0.0013232729439976792
418,1456704154495190,0.002082544525302235,0.0007438707337766813,0.0012573675585569252,0.0010808006199006155
419,1456704154516514,0.0017881309275419568,0.0006767496632172474,0.0010672532317204553,0.0008714061818530246
420,1456704154540255,0.0015682129145041586,0.0007875143461974717,0.0009933361887439797,0.0007325473110163987
421,1456704154555281,0.0014020817031995731,0.0010161344878790622,0.001038223283189007,0.0006709606369428262
422,1456704154577278,0.0012532009112537833,0.0012660402543715151,0.0011621566449420949,0.0006666208179560909
423,1456704154600257,0.0010944257130952627,0.0014395586776538775,0.001301260150995257,0.0006871943209565005
424,1456704154614260,0.0009227080076436755,0.0014706303190332888,0.0013926793546974736,0.000703944819120705
425,1456704154637088,0.0007579266824008506,0.0013432176416671405,0.0013951588118478405,0.0007011696000621269
426,1456704154668584,0.0006295893423262968,0.0010903324085011323,0.0012977460534118663,0.0006766857741991681
427,1456704154674944,0.000559822739960602,0.0007768024032392014,0.001116533811656222,0.0006360914700095731
428,1456704154696586,0.0005509740782159615,0.0004747294784046408,0.0008844529071587886,0.0005857210890053956
429,1456704154719871,0.0005830224021933795,0.0002414660709377343,0.0006398843191820105,0.0005283594394262514
430,1456704154735373,0.0006214349715729663,0.00010666139168319659,0.0004176852277665343,0.00046325089961215887
431,1456704154757380,0.0006315785518347057,7.026152645337347e-05,0.00024365316802300296,0.0003893203589066248
432,1456704154779383,0.0005930431339135893,0.00010950924521441783,0.00013198316566025278,0.0003089910367509266
433,1456704154795384,0.0005075613233673273,0.00019079165477368722,8.502834828628648e-05,0.00023002031830672177
434,1456704154817384,0.0003974898516888487,0.00028162525675720775,9.496495485234985e-05,0.00016414373465830387
435,1456704154840467,0.00029630189506449524,0.0003589889959822076,0.00014700712031858216,0.00012320689779633548
436,1456704154854802,0.00023583747025262352,0.00041225207212239166,0.0002234200935851629,0.00011481323839332582
437,1456704154876476,0.00023569154386464405,0.0004412564379283572,0.00030722888008614496,0.00013959934346369305
438,1456704154899472,0.00029823755314777457,0.00045170620399393027,0.0003847121049779792,0.00019116581452950057
439,1456704154914473,0.00040977850447087536,0.0004503640407351502,0.0004464104182679653,0.00025825308637875567
440,1456704154937268,0.00054588160793256,0.00044182813694003213,0.0004869616076205699,0.0003278540111393532
441,1456704154960093,0.0006781187930765531,0.00042747937987226903,0.0005042935206536313,0.0003879571023989697
442,1456704154974813,0.0007800871003639219,0.00040620017218280215,0.000498646481841553,0.0004292416538585057
443,1456704154996813,0.0008318081343454552,0.0003760059503974628,0.00047176006288697595,0.00044576271067445363
444,1456704155020031,0.0008225091384244118,0.00033574663519579537,0.0004264271259569939,0.0004350672317589296
445,1456704155035222,0.0007520079735583688,0.00028632797642322386,0.00036648196048501085,0.00039816006750622353
446,1456704155056774,0.0006306701508388866,0.0002312893089098161,0.00029712638130752005,0.00033943854362353037
447,1456704155079770,0.00047771608681611684,0.00017684448963265086,0.00022530007185128274,0.0002664182704196211
448,1456704155094998,0.00031792793019621,0.00013147854191812336,0.000159647254942551,0.00018900134247855916
449,1456704155117002,0.0001773946046431848,0.00010500913181911583,0.00010970599949116112,0.00011821893701159447
450,1456704155140100,7.935405867768622e-05,0.00010701858035771978,8.435042746858504e-05,6.46782382899602e-05
451,1456704155154799,4.113272633670838e-05,0.00014487310119259722,9.00327838976704e-05,3.715244769644551e-05
452,1456704155177134,7.264634905119258e-05,0.00022186169395448964,0.00012955369231161447,4.167199331295813e-05
453,1456704155200134,0.0001761377706291738,0.0003359436329862219,0.00020170640959423546,8.109183192007326e-05
454,1456704155215018,0.00034626339935516496,0.000479263506291943,0.0003015112465736338,0.00015474118431937865
455,1456704155237114,0.0005698155579110937,0.0006383814723613953,0.0004204726612223879,0.0002578070955338087
456,1456704155260163,0.000825320085981474,0.0007952965179659051,0.0005466292569866587,0.00038061045287186433
457,1456704155275167,0.0010838633207985637,0.0009296442791388145,0.0006648445476693023,0.0005085353998859373
458,1456704155296835,0.0013128805244613396,0.0010225700834679181,0.000758237232428965,0.0006235811245672229
459,1456704155319843,0.001483627481597696,0.0010623518970552578,0.0008114325744157657,0.0007080059832165534
460,1456704155342160,0.0015807585394301126,0.001050683356558917,0.0008153854071362838,0.0007494199214085292
461,1456704155357251,0.0016099789406066832,0.0010069539421705563,0.000772277915566637,0.0007455265348265774
462,1456704155379160,0.0015988874529329837,0.0009669529437926586,0.0006981055166244136,0.0007062698799210798
463,1456704155403177,0.0015881791135841877,0.0009735442653522824,0.0006207230826869974,0.0006518211617379552
464,1456704155417179,0.0016151277114595508,0.0010605545173604073,0.0005726943498994448,0.0006065094930592315
465,1456704155440249,0.0016965601971571987,0.0012359074063087055,0.0005807950347286003,0.0005908149273802219
466,1456704155462342,0.001820704968002056,0.0014725275853416425,0.0006560536071203129,0.0006148094573136916
467,1456704155477244,0.001953289424030971,0.001713010979734389,0.0007884403269237383,0.0006758463690212158
468,1456704155500249,0.0020544518621586224,0.0018874935194250772,0.0009486208449200548,0.0007609011965116035
469,1456704155523288,0.0020962246342926226,0.0019376905713189355,0.0010964490873110126,0.0008515389323540166
470,1456704155537093,0.0020715908783588218,0.001837457125207485,0.0011931869147191873,0.000928961960626688
471,1456704155559134,0.001993546825087654,0.0016023200973208497,0.0012130281544787294,0.0009779190111508672
472,1456704155583169,0.001888616839065191,0.0012854461657516312,0.0011502382756375363,0.000989647044522775
473,1456704155597172,0.0017893208253407023,0.0009624631733883373,0.0010205156096472843,0.0009641349954184955
474,1456704155620171,0.0017264638499319477,0.0007103605485504602,0.000857198845807222,0.0009110509731935707
475,1456704155642859,0.0017198980260123467,0.0005863383888709067,0.0007034655870454981,0.0008478399963958818
476,1456704155657121,0.0017682917107660957,0.000612110060865721,0.0006014095157790591,0.000793981071781109
477,1456704155679862,0.0018428365416390392,0.0007681471636013787,0.0005795791479039096,0.0007626477210957242
478,1456704155703130,0.0018919369863246245,0.0009999303013058733,0.000642621628229884,0.0007538822919274606
479,1456704155717130,0.0018595672371537972,0.001234415408730015,0.0007680679995062775,0.0007541038195492834
480,1456704155739452,0.0017106341871295195,0.0014013397784690962,0.0009133480674314433,0.0007434226305008532
481,1456704155763469,0.001449867612374608,0.0014524899978246846,0.0010308788343225544,0.0007067780288656824
482,1456704155776739,0.0011229617784548611,0.001373067902528966,0.001084247395111499,0.0006420151335538393
483,1456704155799860,0.0007987401134644651,0.001182276010591353,0.0010581150073928445,0.0005602286005344707
484,1456704155822763,0.0005416661666680376,0.0009241532985639004,0.0009587125704045375,0.00047896817197282717
485,1456704155836971,0.0003883004248784811,0.0006528554382197586,0.0008071162347622478,0.0004130418622611012
486,1456704155859489,0.00033770427712863116,0.0004175788536832255,0.000630202884757266,0.00036814692575677443
487,1456704155882716,0.0003577495706341514,0.0002512879474557062,0.0004533906734350427,0.00033993815533011284
488,1456704155896484,0.00040201998486762494,0.00016551453668896637,0.0002966745376563545,0.00031781090946952586
489,1456704155919789,0.00042888294753264144,0.0001516019221527205,0.00017330958659884178,0.00029073842064183866
490,1456704155942842,0.0004154217153075185,0.00018706522324076123,8.983524334444577e-05,0.00025240086249211333
491,1456704155956804,0.0003622668996254879,0.00024445089032551,4.6624931928431505e-05,0.000203776528618228
492,1456704155979801,0.0002891218846592436,0.00029963571840079174,3.887059048722357e-05,0.00015255847946744224
493,1456704156002020,0.00022395294283174535,0.0003371734362829806,5.820344646292042e-05,0.00010992519356130348
494,1456704156017024,0.00019070473978559523,0.00035178563252258625,9.490137082933549e-05,8.61261625912328e-05
495,1456704156039518,0.0002003845179027272,0.00034661458576195486,0.00014016150284762335,8.670696311230321e-05
496,1456704156062148,0.00024843786904319733,0.00032969396436712564,0.00018767080819612027,0.00011078666654335199
497,1456704156077146,0.00031845063521821295,0.00031012065032784035,0.0002339287356202667,0.00015180010403679066
498,1456704156100153,0.00038972063017291946,0.00029497633327105725,0.00027735884161131635,0.00020005713621088744
499,1456704156122151,0.0004451188640183963,0.0002875423094654868,0.0003168519164639362,0.0002458778167679923
500,1456704156136968,0.0004761192740900437,0.0002869598820995283,0.000350658172695036,0.00028211605008840744
501,1456704156159793,0.0004835648551336468,0.00028919145220231325,0.0003762897536335824,0.00030539294268014383
502,1456704156181757,0.0004748731926838676,0.0002888488840298084,0.0003913998620113442,0.0003159914733152841
503,1456704156196758,0.00045983437286357915,0.00028121750415104757,0.00039491028318092673,0.0003168234057491647
504,1456704156219991,0.0004470870004302086,0.00026379992577351975,0.0003874955031774643,0.0003119985549423682
505,1456704156242205,0.00044210068414972967,0.00023699994476353878,0.0003710418997902054,0.0003053587637698949
506,1456704156257206,0.00044631045741594925,0.00020394076422496294,0.00034746808224568794,0.00029916062266162894
507,1456704156279208,0.00045686232973145226,0.00016959073082596537,0.0003177304913770467,0.00029314799522142486
508,1456704156301421,0.00046701287955140447,0.00013936589383960687,0.0002816935731463039,0.00028445233064970866
509,1456704156317209,0.0004676621341706486,0.00011744986157258684,0.00023899930738256563,0.00026870591523452765
510,1456704156340115,0.00045018984752888977,0.00010534241759590681,0.00019048734032476783,0.00024222810572294192
511,1456704156361121,0.00040994946321318846,0.00010136048396241674,0.00013938855002673363,0.00020444150851624046
512,1456704156376123,0.00034916827901308294,0.00010157974294570612,9.160047555840336e-05,0.0001593637619946188
513,1456704156400149,0.0002780455092649463,0.00010201836435258811,5.482303675304868e-05,0.00011537167363921912
514,1456704156422143,0.0002133893951126238,0.00010116688139185117,3.688914595267502e-05,8.319467320548107e-05
515,1456704156437116,0.00017488096856491534,0.00010168515253316843,4.38860776437945e-05,7.282303549023603e-05
516,1456704156459305,0.0001799270494038564,0.00011036033989723203,7.859137867269997e-05,9.046989903663204e-05
517,1456704156482145,0.0002389350769665914,0.00013616858906816614,0.00013964818894862457,0.00013681354885038819
518,1456704156506148,0.0003530517716703315,0.0001871730537191737,0.00022186473193629613,0.0002073244975097191
519,1456704156520144,0.0005152610125489441,0.0002674792527843744,0.0003177066749318951,0.0002945101348517621
520,1456704156542114,0.000713628313726559,0.00037521865152091016,0.0004193340202364279,0.00039079862909066246
521,1456704156566144,0.0009340452899235633,0.0005018235306224198,0.0005199821093321162,0.0004903150969903135
522,1456704156579114,0.0011604780705686143,0.0006324153395464767,0.0006137983568743172,0.0005884845758703353
523,1456704156602139,0.0013731275742224463,0.0007473561129224055,0.0006943644339301112,0.0006798845247921766
524,1456704156626100,0.0015472161757811465,0.0008254823404251018,0.0007532436288445656,0.0007560685957354
525,1456704156639844,0.0016555580227740258,0.0008494366418472211,0.0007802054791969477,0.0008053553260277234
526,1456704156661343,0.001676193845178808,0.0008124411674715681,0.0007660686484224419,0.0008156793416973369
527,1456704156686343,0.0016030812900846175,0.0007242159228494686,0.0007076720469043805,0.000779980712560177
528,1456704156699645,0.0014548455335500199,0.0006126199370364489,0.0006129597572185883,0.0007019678463837172
529,1456704156721630,0.0012758449323513352,0.000518277827634467,0.0005033308380948411,0.0005992334924039788
530,1456704156745693,0.0011265506304760883,0.00048245412964368175,0.0004109392446322691,0.0005013089266670801
531,1456704156759848,0.0010657012861564805,0.0005324409771199441,0.00037065624519566127,0.0004423686189091198
532,1456704156781788,0.0011315005143726171,0.000670925015370448,0.00040908573047992384,0.00045093951737332677
533,1456704156805851,0.0013295048396052677,0.0008741088397448168,0.0005347648339294387,0.0005404520399770261
534,1456704156819845,0.001630613162196672,0.0010986835136373534,0.0007333378336534705,0.000703908349154249
535,1456704156841359,0.0019778265134211197,0.0012936554638092405,0.0009694531242741492,0.0009141520119355619
536,1456704156865356,0.0022989560628933372,0.001412519607419058,0.00119485190400921,0.0011296126193534436
537,1456704156879356,0.0025234354440881283,0.0014236353594330768,0.001360553423148084,0.0013043750112457302
538,1456704156901357,0.002601332472039576,0.001318376963505546,0.0014301299222319237,0.0014004955016581786
539,1456704156926151,0.002520066887710748,0.0011157639046631856,0.001390570735499663,0.0013994207157515053
540,1456704156939663,0.002311581824155511,0.0008607744633383075,0.0012573896152076312,0.0013086682556568917
541,1456704156962160,0.0020436718902472804,0.0006143738850378327,0.0010717399942755425,0.0011604769812217214
542,1456704156984167,0.0017954483308120724,0.00043677577778946,0.0008893151757805778,0.0010014571715905082
543,1456704156999168,0.0016259280134047573,0.00036923921689497224,0.0007634565160356162,0.000876023034487032
544,1456704157021168,0.0015508047275216768,0.00042115166497105547,0.0007276422289247827,0.0008101009642244038
545,1456704157044635,0.0015401380589079741,0.0005673408087881694,0.000784070385049312,0.0008027772776520273
546,1456704157059423,0.0015383814213462352,0.0007566243149534131,0.0009036209183560325,0.0008301699510422123
547,1456704157081582,0.0014948786431584341,0.000928471932912393,0.0010376778234341187,0.000859081965707721
548,1456704157104390,0.0013876180663332553,0.001031756775335908,0.0011364766350147703,0.0008625924660911914
549,1456704157119637,0.001229097050200225,0.0010388887545894538,0.0011656393529340305,0.0008296554750343113
550,1456704157142102,0.001054693037345604,0.0009507271864603574,0.001114354577690346,0.0007653950152171735
551,1456704157165120,0.0009025319159572548,0.0007917626382276844,0.000993669603821252,0.0006841737246853266
552,1456704157188120,0.0007957598384818104,0.0005989115418225474,0.0008281021489066928,0.000600466564780867
553,1456704157202105,0.0007346582625457958,0.00040899416960135334,0.0006457471510550531,0.00052238196047276
554,1456704157225097,0.0007002248801377354,0.00024929782754977143,0.0004709901549488172,0.00045027960765955954
555,1456704157239831,0.0006655464463354185,0.00013345828161151528,0.0003212632064035508,0.0003799073162886769
556,1456704157262339,0.0006086563005803656,6.24542900665138e-05,0.00020687357821254327,0.0003073904320294417
557,1456704157284641,0.0005212892706842008,2.88661890538257e-05,0.00013203627517241768,0.00023311464012475572
558,1456704157299639,0.00041093319248067614,2.2109751672326783e-05,9.584872247947778e-05,0.00016276291024400994
559,1456704157321627,0.0002968103744764894,3.2780967826249625e-05,9.309171911166336e-05,0.0001054650088112568
560,1456704157344763,0.000202360822729649,5.500209810568582e-05,0.00011538191658994389,7.026188191867251e-05
561,1456704157359436,0.0001471830322114394,8.64896243042814e-05,0.00015298598968634035,6.254115796512679e-05
562,1456704157381831,0.00014089366113185782,0.00012687969887514278,0.00019695576524013706,8.187651386003994e-05
563,1456704157404764,0.00018063241843656398,0.00017544650964206198,0.0002408094034407982,0.0001220397060502068
564,1456704157419439,0.0002529870126880822,0.00022946521328748616,0.00028108635102864886,0.00017309562266296707
565,1456704157441469,0.00033964922192822143,0.0002840125621575087,0.00031664926252282944,0.00022468939286215768
566,1456704157464470,0.0004243482871961638,0.0003331841607512869,0.0003472728552883206,0.00026914274954126103
567,1456704157479471,0.0004976924119153824,0.00037196193061167927,0.00037241072791496327,0.00030305144614530124
568,1456704157501756,0.0005576853111954425,0.0003976592708945807,0.0003907645088047441,0.0003268334189124104
569,1456704157524814,0.0006064925045653423,0.00041013478134303887,0.0004006023398325351,0.0003427965139276935
570,1456704157539864,0.0006463557859993266,0.00041068679937985675,0.0004002978577203675,0.0003530453601201311
571,1456704157561334,0.0006774914273423503,0.00040037903201919347,0.00038866624566518787,0.00035838411385000896
572,1456704157584637,0.0006986629381162144,0.00037897001199899713,0.0003651253296911315,0.0003584796584047945
573,1456704157600335,0.0007089526530556024,0.0003452471074139712,0.00032997933137548607,0.00035268202687717567
574,1456704157621629,0.0007087614117330288,0.00029861705746863385,0.00028495532987147794,0.00034067733461540977
575,1456704157644763,0.000699224115626213,0.0002409927593334576,0.00023371788808922945,0.00032256855955880193
576,1456704157659760,0.000680743795728019,0.0001778791743636919,0.00018184988301520836,0.0002985665043968874
577,1456704157681432,0.0006519642264190342,0.00011802967518453925,0.00013597240070708111,0.0002687774999112055
578,1456704157704694,0.0006100350562933614,7.170502351480625e-05,0.00010218542828197859,0.00023345971772033674
579,1456704157721666,0.0005522484697266321,4.811177458884443e-05,8.447223479908694e-05,0.00019374177410828015
580,1456704157741670,0.00047862612181908147,5.290272838724383e-05,8.380878547697519e-05,0.00015243419624614107
581,1456704157764664,0.0003945993267271047,8.663316565428109e-05,9.841980786616958e-05,0.00011442533309563663
582,1456704157781666,0.00031244400973234714,0.00014476551927715593,0.00012508145164300048,8.629953288548812e-05
583,1456704157801958,0.0002502741794822077,0.00021926668279296713,0.00016083154956609105,7.519772386766997e-05
584,1456704157824969,0.00022860336792814625,0.0003012231139359237,0.00020422347568606225,8.737452304472333e-05
585,1456704157847983,0.0002659084951208322,0.00038346040010080597,0.00025551686386581066,0.00012706641285632135
586,1456704157862136,0.0003749361724414616,0.00046209417464028164,0.00031574951898587477,0.00019597118429982112
587,1456704157885166,0.0005604146449071926,0.0005363074135556014,0.0003851212825870306,0.00029307789809826447
588,1456704157907135,0.000817489265693609,0.0006063786428245116,0.00046135016843149035,0.00041429302726266054
589,1456704157923169,0.001129939607378848,0.0006708994944354076,0.0005386507756907187,0.0005515896731603815
590,1456704157944301,0.001468420281010617,0.0007248155307274746,0.0006078258265728289,0.0006920974388945979
591,1456704157966304,0.00179068725035866,0.0007598608909034278,0.000657734547534966,0.0008181776707229488
592,1456704157981300,0.002046545790477189,0.0007679320585011794,0.0006781129064635743,0.0009096240040959285
593,1456704158004520,0.0021890280256040098,0.0007463978555868553,0.0006633012804139975,0.000948452883542579
594,1456704158027836,0.0021901461282779924,0.0007030286640558254,0.0006158805629472919,0.0009254248752137931
595,1456704158041541,0.0020558247791398767,0.0006577681232539848,0.0005487224853693567,0.0008459890403820343
596,1456704158064547,0.0018325072416288802,0.0006393485990283899,0.0004839170546064878,0.0007325825195831597
597,1456704158086764,0.0015994823534788718,0.0006768007602532547,0.00044787792188109485,0.0006209209191621531
598,1456704158102759,0.0014465850902778037,0.0007885641465572846,0.00046366854835205694,0.0005502823629815409
599,1456704158124779,0.001444406907482729,0.0009737645157883797,0.0005433685135886164,0.0005509372394430723
600,1456704158147803,0.0016193866969571613,0.0012098094491428068,0.0006836453919238232,0.0006339465367640585
601,1456704158165784,0.0019452079983355085,0.0014574872067888694,0.0008659757289746675,0.0007878310741162288
602,1456704158185124,0.002354012255593689,0.001671090709145687,0.001060520639199834,0.0009831243453614314
603,1456704158207069,0.0027604903470086193,0.0018095416023802809,0.0012317399041397415,0.0011818462543007893
604,1456704158221792,0.003086554278661574,0.0018458406553451053,0.001344862667723167,0.0013473531994292805
605,1456704158245160,0.003277967485552848,0.0017741911014310895,0.0013733817671794282,0.0014516348330367284
606,1456704158267888,0.003312519425154788,0.0016143443132342222,0.0013070723780097843,0.0014798900923504866
607,1456704158283083,0.003203444707068601,0.001411196275916142,0.001158212059287949,0.0014333567946960884
608,1456704158305082,0.00299848820785458,0.0012267233654971504,0.0009625840366266092,0.0013301515577319367
609,1456704158326834,0.0027698044818334636,0.0011231546430352424,0.0007727272190791508,0.0012021837799633327
610,1456704158342140,0.0025908354001886198,0.0011410037495372543,0.0006437175060040618,0.001086555589750226
611,1456704158364157,0.002505353612578631,0.0012806770010527428,0.0006154889360010873,0.001012910327732324
612,1456704158388157,0.0025041530528204224,0.0014975096113820196,0.0006984792458382052,0.0009920022849264879
613,1456704158403159,0.002526047154182312,0.001714742333409531,0.0008690634640608711,0.0010120004352980208
614,1456704158425160,0.0024873299564266422,0.001849947664767604,0.001077095788356436,0.001045504021681286
615,1456704158447183,0.0023252210805636605,0.0018439099167040576,0.0012621380441318307,0.001063575921126092
616,1456704158461183,0.002030853716048441,0.001680479035672099,0.0013714217854257566,0.0010485160920401468
617,1456704158484397,0.0016541601992559978,0.0013902943750600284,0.0013732211429462336,0.0009985761060450052
618,1456704158507452,0.0012803359468336098,0.0010377844718568886,0.0012627094998109956,0.0009237797233196141
619,1456704158522519,0.0009922841325730337,0.0006972625598838677,0.0010606698918494877,0.0008372919614389383
620,1456704158552122,0.0008375961769713758,0.00042801513757793994,0.0008069466036007546,0.0007480172502226917
621,1456704158576148,0.0008132146019444467,0.0002581275743875463,0.0005506081723018029,0.0006579130726795633
622,1456704158583148,0.0008715362006448596,0.00018231614283076967,0.0003386785657452768,0.0005643458840903745
623,1456704158605144,0.0009432322224548318,0.00017239915641091786,0.00020562487197019257,0.0004654775135365078
624,1456704158627923,0.0009667183929820717,0.0001936426483778309,0.00016615199442758334,0.00036559122216387943
625,1456704158643216,0.0009125500820454014,0.00021876704039907273,0.0002133725359226662,0.0002773166930093022
626,1456704158664219,0.0007933285059257673,0.00023418690580209346,0.00032271265209343503,0.00021896747371464285
627,1456704158688219,0.0006557079350657492,0.0002379879469140249,0.00045971459455738104,0.0002075911929285054
628,1456704158704220,0.000558711664571841,0.00023336933239221893,0.0005886739262845321,0.000250804680216015
629,1456704158725221,0.0005482701066100297,0.00022271372242353542,0.0006796578407769018,0.0003414619675678871
630,1456704158748367,0.0006389558647143726,0.00020565508791094782,0.0007131171974473512,0.0004580313906705076
631,1456704158763369,0.0008099672388771292,0.00018100150425124102,0.0006823797320992238,0.0005709307480256541
632,1456704158784670,0.001015359365630851,0.00014977402010779163,0.0005941311091719872,0.0006522270171886134
633,1456704158807742,0.0012017947761841024,0.00011666107098952681,0.0004664814389076872,0.0006843855002140996
634,1456704158823371,0.00132466337450067,8.912515992323161e-05,0.0003244876535266122,0.0006643069641938997
635,1456704158847166,0.001356845621640704,7.50790273480566e-05,0.00019399499877155904,0.0006016349090767674
636,1456704158867208,0.0012904368314568253,8.034651424994975e-05,9.551397540350202e-05,0.0005133540168688865
637,1456704158883166,0.001135098329233891,0.0001066289727525917,3.997129775442296e-05,0.00041784610686863285
638,1456704158905167,0.0009154022434958818,0.0001503500404313544,2.753425878882603e-05,0.00033048319141604297
639,1456704158927745,0.000666511103677277,0.00020277071998561812,4.958057485804305e-05,0.0002611227627337881
640,1456704158943258,0.0004267719756269767,0.00025177911327352217,9.270671772446056e-05,0.0002131223669425655
641,1456704158964261,0.00022815530708535258,0.0002853272356198467,0.00014297067702984668,0.0001837480542653385
642,1456704158987268,8.822548820249342e-05,0.00029556688734058023,0.00018878033587121817,0.00016606925317814422
643,1456704159003262,7.466819992172264e-06,0.00028189497178329867,0.00022192541903966222,0.0001520251234454293
644,1456704159025263,-2.68968914495648e-05,0.00025120201305852704,0.00023747120201096002,0.00013573654470623437
645,1456704159047531,-3.2669994406276664e-05,0.00021491309656878336,0.00023362215825474645,0.00011590797510166818
646,1456704159069533,-2.3818977007189498e-05,0.0001841576798268318,0.00021198290953946652,9.639759652924971e-05
647,1456704159084539,-4.572854311080952e-06,0.00016539651306406148,0.00017767387648107472,8.45948285381283e-05
648,1456704159107757,3.133026389157208e-05,0.00015850595765462522,0.00013849634584300408,8.805303563819463e-05
649,1456704159129751,9.608337865733913e-05,0.00015807355729122603,0.00010299599157672336,0.00011065422450953046
650,1456704159144705,0.00019984539574073704,0.00015721283442397536,7.815102137137166e-05,0.0001499711826492659
651,1456704159167728,0.0003427716325817338,0.00015203508367795017,6.770334697196948e-05,0.00019709819450551956
652,1456704159189773,0.0005106693594897261,0.00014442807283151628,7.171597681119687e-05,0.00023918188058006797
653,1456704159204802,0.0006765807120724177,0.00014145920725049368,8.728121732141281e-05,0.00026374479119871126
654,1456704159228075,0.0008081229497715422,0.00015151224784630982,0.00010992734293440396,0.00026317051010831465
655,1456704159249579,0.0008777828910293183,0.0001792029477479315,0.00013521105439293988,0.00023760336029165423
656,1456704159272589,0.0008718220594278187,0.00022190922724660934,0.00015996772045535738,0.00019501007401788898
657,1456704159287589,0.0007940276225566169,0.00026989019561629086,0.0001826676290397864,0.0001482057957497552
658,1456704159309870,0.0006631667890142719,0.00031001989739649216,0.0002026384144441192,0.00010997232270109448
659,1456704159324875,0.0005061059520984591,0.0003312185761601401,0.00021871896868722252,8.834592085749174e-05
660,1456704159347888,0.00035015937428306614,0.00032878816148131215,0.00022858157864858358,8.411015008288535e-05
661,1456704159369889,0.00021757779382785932,0.0003055813668657848,0.00022963157411244085,9.145258909213197e-05
662,1456704159385123,0.00012310237812426922,0.00026979341804019485,0.0002211050988717109,0.00010123473957676551
663,1456704159407892,7.379137655646041e-05,0.0002309337001825195,0.0002057878912498333,0.00010518735846292984
664,1456704159429716,6.983447967906295e-05,0.00019616947376502723,0.0001897468100833341,9.910828679538658e-05
665,1456704159444189,0.00010563504577191371,0.0001685983187216197,0.0001797758619823535,8.385211939687029e-05
666,1456704159467233,0.00017122626641802243,0.00014776143840918403,0.00017996473668374516,6.412405771262671e-05
667,1456704159489197,0.0002543409707719766,0.0001316423689804073,0.00018951411285088315,4.610132791162826e-05
668,1456704159504192,0.00034297202102215405,0.00011887590877835737,0.00020307573661438222,3.514420143249698e-05
669,1456704159527738,0.0004275060569653664,0.00010996498080013103,0.00021327824763010066,3.434649090982483e-05
670,1456704159551248,0.0005013411829018775,0.00010694931858673713,0.0002139690725758442,4.397593009769835e-05
671,1456704159564211,0.0005597595670445548,0.0001119208086917017,0.0002025917619433593,6.154553474019607e-05
672,1456704159587457,0.0005981363351055671,0.0001254111406872589,0.0001807562604363108,8.240207661942574e-05
673,1456704159609410,0.0006111693708803453,0.00014555785460505297,0.00015300019574434018,0.00010089499047070033
674,1456704159626249,0.0005941181397524419,0.00016832332733657642,0.00012459185442517876,0.00011202661565841589
675,1456704159647448,0.0005455269829565414,0.00018847436235109309,9.957987302222902e-05,0.00011307425730898809
676,1456704159677621,0.0004696392321280925,0.00020084680451120946,7.993160739572549e-05,0.00010444382172981549
677,1456704159686587,0.0003765362657645785,0.00020152957657874397,6.579462969088842e-05,8.92725030232434e-05
678,1456704159707691,0.00027916878050658427,0.00018874046293263945,5.6284322317462507e-05,7.192682635149799e-05
679,1456704159729632,0.00018835180640457624,0.0001632047556092161,5.015369831261895e-05,5.611522900796667e-05
680,1456704159746139,0.00010832783183873442,0.00012792565488531422,4.609089501093674e-05,4.349688108598996e-05
681,1456704159767383,3.551789731479763e-05,8.747591984361908e-05,4.277562937976321e-05,3.337960488682285e-05
