,timestamp,roll,pitch,yaw
0,1456704146116973,0.00057031811752208,0.0005196140881082377,0.0006625881934538436
1,1456704146138479,0.0008117663066340823,0.0006803628551749843,0.0005146931395485714
2,1456704146162481,0.0010181328585897572,0.0008245172104040517,0.00038286856284437004
3,1456704146177482,0.0011572482071371016,0.0009372645477687829,0.0002822918183900686
4,1456704146198488,0.0012050931546587719,0.0010061626280196126,0.00022511483933670135
5,1456704146222999,0.0011523142067986433,0.0010233570697216897,0.00021753768738821152
6,1456704146268507,0.0010100888619911275,0.0009882727715875101,0.000257661937419822
7,1456704146277508,0.0008115291060543544,0.0009099010377197223,0.000335990785041831
8,1456704146285508,0.0006054136536825863,0.0008072160556667304,0.0004388787021988236
9,1456704146300511,0.00044242952807674394,0.0007063251771001021,0.0005531471351073125
10,1456704146321224,0.00035852865129595683,0.0006340618467079024,0.0006691736928994823
11,1456704146342727,0.00036236893288277473,0.0006095316805628234,0.000780770718528428
12,1456704146387010,0.0004324070808309809,0.0006368106283550171,0.0008823705768774803
13,1456704146387724,0.0005250634314068612,0.0007026675614285214,0.0009659403282424483
14,1456704146402044,0.0005907516979657201,0.0007818725235219422,0.0010203421075420706
15,1456704146418016,0.0005914102606738217,0.0008490016948426044,0.001034169486917248
16,1456704146440527,0.0005130548113608056,0.000891264427016489,0.001000501915192636
17,1456704146461534,0.0003700652855712404,0.0009149976339738583,0.0009205296380960724
18,1456704146477544,0.00020200094655070062,0.0009413253354995654,0.000803922480931089
19,1456704146508538,6.549378143984853e-05,0.0009928405357979692,0.0006664554628488336
20,1456704146522353,2.2848620556926624e-05,0.0010786895014467703,0.000527407225404571
21,1456704146537556,0.00012787017295209588,0.0011861427648226282,0.00040864515515653347
22,1456704146560559,0.00041018822843086203,0.0012826864992199665,0.0003346101902288959
23,1456704146582559,0.0008615734178403744,0.0013274879480733455,0.0003303100056648526
24,1456704146605561,0.0014293615454344028,0.0012877932080532296,0.00041514114039540554
25,1456704146621598,0.0020213405518997125,0.0011545152049251993,0.0005936145391462363
26,1456704146641864,0.0025232379590820445,0.0009510945919224723,0.0008475252494313587
27,1456704146664867,0.0028258406959346363,0.0007311043419306332,0.0011351112135983888
28,1456704146680865,0.0028554793576167367,0.0005639546716850997,0.0014000488264654676
29,1456704146701875,0.0025997070563415297,0.0005135516824330079,0.0015880727237329597
30,1456704146725402,0.002119495879039635,0.0006187996316552487,0.001664692994433323
31,1456704146741165,0.00154103217067862,0.0008843870110212478,0.001626435904761061
32,1456704146770094,0.001025741353234879,0.0012849393555513435,0.0015007295807096474
33,1456704146787124,0.0007260013369088287,0.0017782203947098263,0.001334631199393866
34,1456704146800893,0.0007416633362202912,0.002318213030962608,0.0011775887415108805
35,1456704146822357,0.0010932951464699707,0.0028600613194399863,0.0010657383220089934
36,1456704146845318,0.0017206334902623397,0.0033555791347481684,0.001013547548883553
37,1456704146860318,0.0025038625177659247,0.0037458033195948036,0.0010141917538840815
38,1456704146882454,0.0032974484725294697,0.00396057413790945,0.001046101808046384
39,1456704146905454,0.00396428954279669,0.0039321707313351665,0.00108193837523194
40,1456704146921272,0.004400910161254881,0.003622341506657576,0.0010971950810047236
41,1456704146942526,0.004549954960735646,0.0030533384447710013,0.0010766965535938513
42,1456704146973311,0.004401927170987633,0.0023277559128311006,0.0010177731418819834
43,1456704146981311,0.0039916201006989106,0.0016227370826833896,0.0009296754575426517
44,1456704147004448,0.003394178121998443,0.001153086340780974,0.000830162834612193
45,1456704147025263,0.0027210433402111035,0.0011118963478459973,0.000741238110643007
46,1456704147041427,0.0021099622380085763,0.0016089303515012885,0.0006858740156233923
47,1456704147063163,0.0017014949544113841,0.002629283743034656,0.000686543237377517
48,1456704147086506,0.0016016609445772662,0.004026819584762463,0.0007650131890928612
49,1456704147101164,0.0018430309728732798,0.005554040862530127,0.000941566852722852
50,1456704147123179,0.002363870185420237,0.0069196007113172505,0.0012313418078922264
51,1456704147145191,0.003019410966548511,0.00785974626001147,0.0016367022241241054
52,1456704147161189,0.003624510189617998,0.008208513037513205,0.002137195133328866
53,1456704147190214,0.004012422865866859,0.00794971700516055,0.002681454153302255
54,1456704147205192,0.00408738254906697,0.007231811524241898,0.003187032031919588
55,1456704147221197,0.0038512248720408678,0.006330314725284971,0.003553069706973103
56,1456704147243203,0.0033947528890609212,0.005558288426455789,0.003685944844341298
57,1456704147265205,0.0028586827933412243,0.005151501047807999,0.0035308555398929657
58,1456704147281206,0.0023811479608745576,0.0051769364217364435,0.0030966531221148954
59,1456704147305207,0.002053264703657282,0.00551129389444497,0.0024615160601492206
60,1456704147324224,0.0018983331269536775,0.005903024454487718,0.0017546183201184885
61,1456704147341408,0.0018775603447162173,0.006085917713420133,0.001120152088779846
62,1456704147363236,0.0019145233608925893,0.00588629542973226,0.0006779695725610307
63,1456704147386414,0.0019269584373385598,0.005276234345199294,0.0004949456814924524
64,1456704147408238,0.0018553281047925683,0.004360261536292386,0.0005746333365796529
65,1456704147423247,0.0016799595914682361,0.003316438120910427,0.0008654399176287797
66,1456704147445264,0.0014231966052642,0.0023264128257900565,0.0012824915837695568
67,1456704147467265,0.0011393959434681663,0.0015225376810155816,0.0017350184117123578
68,1456704147484266,0.0008991986856373208,0.0009645452927397229,0.002149516564423037
69,1456704147505271,0.0007727924549169552,0.0006441869207424184,0.0024811346284952613
70,1456704147528973,0.0008134287627815236,0.0005080822435972364,0.0027119714451354993
71,1456704147542943,0.0010421380763906054,0.00048657923063987927,0.002841549711073006
72,1456704147565677,0.001437228341157816,0.0005180010210113753,0.002876999424460167
73,1456704147588680,0.0019335651661073635,0.0005619752805556198,0.0028274709211715703
74,1456704147603681,0.0024343283186147326,0.0006013127002852621,0.002702486385760118
75,1456704147626189,0.0028333595792665598,0.000636777941706721,0.0025116316291005207
76,1456704147648697,0.0030422308367820707,0.0006804531007714021,0.0022642840728088866
77,1456704147663699,0.0030144929959321897,0.0007508773429881373,0.001970416132747309
78,1456704147685700,0.0027601911151502135,0.0008694368144130614,0.0016437518102514447
79,1456704147708701,0.002345762781697615,0.0010556404698714998,0.0013062253771572673
80,1456704147724215,0.0018777008230467876,0.0013197999723569564,0.0009903189117798277
81,1456704147752723,0.0014733303315402778,0.0016542293000840018,0.0007360810552768762
82,1456704147768724,0.0012275956259586319,0.0020268073722526235,0.0005825383671471332
83,1456704147783724,0.0011875897915086737,0.0023817057209794706,0.0005567049571098477
84,1456704147805725,0.0013439618126461007,0.002649868379850892,0.0006652858402883492
85,1456704147830931,0.001640653181864938,0.0027671746431982406,0.0008932395068732834
86,1456704147844136,0.0019956432180102965,0.002694009631274276,0.0012096478231695394
87,1456704147866145,0.0023216602333274517,0.0024291205974818816,0.0015768405823992817
88,1456704147889134,0.0025403401247563193,0.0020137436343768793,0.0019569293276690447
89,1456704147904135,0.0025916690789249473,0.0015264842099733898,0.00231266695450178
90,1456704147926176,0.002444291011977384,0.0010715304691940682,0.002604668885955829
91,1456704147949192,0.002108004308162404,0.000761550463831928,0.0027903162691961195
92,1456704147970495,0.0016424158818656909,0.0006954377141649521,0.002828914829827092
93,1456704147986193,0.0011527267505740926,0.0009332614981490329,0.002693803068512967
94,1456704148009195,0.000768024602650179,0.001475075260080378,0.002387386899100404
95,1456704148030213,0.0006062171890441257,0.0022521732649215197,0.0019518301920455733
96,1456704148046221,0.0007370283889183685,0.0031363851167867884,0.0014681982593043848
97,1456704148069223,0.0011563508916396365,0.0039667198266425206,0.0010408144245271595
98,1456704148090224,0.0017820036340840282,0.0045869102109811636,0.0007698931036884261
99,1456704148106225,0.0024748386447262963,0.004884737958441225,0.0007210997968812512
100,1456704148129252,0.0030810598365361183,0.00482434855558919,0.0009029837266372193
101,1456704148150260,0.003482455317014522,0.004464235444609383,0.0012613000973538534
102,1456704148166261,0.0036352382856859483,0.003954539629118279,0.0016935767846539798
103,1456704148188262,0.0035807231934339846,0.003508226230417211,0.00207975558824795
104,1456704148209263,0.003422659226373356,0.0033447843947924283,0.0023185205008906654
105,1456704148225814,0.0032808582017023113,0.0036158957179047136,0.002356901967300228
106,1456704148249375,0.0032412102173421616,0.0043379186638052465,0.0022036094162523794
107,1456704148270390,0.003323573961501557,0.005364798501237476,0.001922588092937485
108,1456704148286388,0.003480650637734421,0.0064243944054436794,0.0016096494384373805
109,1456704148309392,0.0036262511238908343,0.007211766711428373,0.0013594882779827246
110,1456704148330028,0.0036776652609087582,0.007502267939843571,0.0012328920047948485
111,1456704148345544,0.003591481205563646,0.007235114329475619,0.0012352177141347507
112,1456704148368500,0.0033773291962604104,0.0065304126209058625,0.001315783224123486
113,1456704148389710,0.003086022359908322,0.0056315331376040325,0.0013908493028486285
114,1456704148405501,0.0027813687301311506,0.004797982559979421,0.0013814970905103585
115,1456704148429716,0.002512498430256921,0.004198332129874584,0.0012488294170984232
116,1456704148452430,0.0023013747008951493,0.003854267181259429,0.0010095790427734651
117,1456704148466431,0.002148285126014323,0.003659592962356826,0.0007258185014677978
118,1456704148489432,0.002044548676475149,0.0034563079381291864,0.0004761079793453828
119,1456704148512435,0.0019785401895322193,0.0031214771334070086,0.00032336143556111916
120,1456704148525949,0.0019317118102113865,0.002620801402907179,0.00029325693810120483
121,1456704148548459,0.001874055079583323,0.0020104872633055406,0.0003694471026444094
122,1456704148571458,0.0017697900490498799,0.0013980012046129033,0.0005040383008747929
123,1456704148585459,0.0015936740883970484,0.0008887501296019654,0.0006370876447983637
124,1456704148608492,0.001347515647799049,0.0005453267186024763,0.0007172593806629584
125,1456704148631978,0.0010650252964673136,0.00037343796564925913,0.000716657532272303
126,1456704148645484,0.0008009617281102548,0.0003330819661871216,0.0006358546182462305
127,1456704148668486,0.000610086644782728,0.0003632445218002657,0.0004991257662565022
128,1456704148691487,0.0005260086683802811,0.0004066733788767787,0.0003431100751955428
129,1456704148705488,0.0005488114537099087,0.0004259581940961398,0.00020362599611490497
130,1456704148729207,0.0006460188854890464,0.00040852640156981824,0.00010523410862738592
131,1456704148751464,0.0007658468137856702,0.00036271681459280485,5.6579435600717716e-05
132,1456704148766429,0.0008564753197430263,0.0003089524268328166,5.196856601018536e-05
133,1456704148788461,0.0008827887923746249,0.00027000909564556046,7.716955253228672e-05
134,1456704148812432,0.0008342196600545014,0.0002633184846411602,0.0001163279740775683
135,1456704148826373,0.0007226158711466841,0.0002967906811138848,0.00015739581197318263
136,1456704148848638,0.0005739387269799234,0.00036838920842682143,0.00019469766818915981
137,1456704148871639,0.000419070578412749,0.0004687386757434576,0.00022840131048371034
138,1456704148885639,0.0002868538805893121,0.0005851928485297296,0.00026161487631651346
139,1456704148908640,0.00019939585346265978,0.0007053507803434263,0.0002966185971765758
140,1456704148932149,0.00016855575371910777,0.0008185418701677436,0.0003320040854718329
141,1456704148953156,0.00019360104479276304,0.0009151533662592996,0.0003619767640282642
142,1456704148969157,0.0002612310512042533,0.0009849715561349903,0.0003780728803796665
143,1456704148992350,0.0003489402548644845,0.0010162541806319181,0.0003725840427983691
144,1456704149013161,0.00043118078677660836,0.0009969911131386966,0.0003423274723650118
145,1456704149028963,0.0004861766522737823,0.0009188874414916065,0.0002911253432472522
146,1456704149051270,0.0005008263852362553,0.0007830376637053402,0.0002296758935662237
147,1456704149073271,0.00047231850874202935,0.0006045248471198419,0.0001725547046224944
148,1456704149088454,0.0004068668421408664,0.00041264185147804074,0.0001334858727384864
149,1456704149112273,0.0003169343115607509,0.0002452612726203605,0.00012095874048776055
150,1456704149133802,0.00021811936403753112,0.00013929172314159195,0.00013614525441610844
151,1456704149148803,0.0001262787759628433,0.00012157403221015101,0.00017393306278656138
152,1456704149170804,5.514879045117021e-05,0.00020409803909543888,0.00022632629584732375
153,1456704149192804,1.466444867047427e-05,0.0003846259409695047,0.00028633524751921826
154,1456704149208806,9.993792137882568e-06,0.000650789434453631,0.00035039798374274575
155,1456704149230820,4.099171776185932e-05,0.0009842151559397896,0.00041828670014963464
156,1456704149252330,0.00010171949263011471,0.0013618170096319608,0.0004907419889074616
157,1456704149268332,0.0001801279539454377,0.001753701089345672,0.0005661313165229446
158,1456704149290333,0.00025874119655695544,0.0021200971553234555,0.0006378648114829871
159,1456704149312334,0.0003175648276860871,0.002411863916190464,0.0006939925084399104
160,1456704149328990,0.00033986626219184796,0.0025789763062002732,0.0007195586202161936
161,1456704149350546,0.00031989245750271036,0.0025883406080407295,0.0007013282713617424
162,1456704149373547,0.0002697146307256144,0.002446922832712004,0.0006336712043792048
163,1456704149388548,0.0002213223656160652,0.0022204170078936533,0.0005236929363102432
164,1456704149410551,0.00022073607092464796,0.0020344411634910966,0.00039338652858687335
165,1456704149433562,0.00031355884285940664,0.0020478552700863907,0.00027716650756573133
166,1456704149448569,0.0005254809509309329,0.0023983183583567067,0.00021476562350116024
167,1456704149470570,0.000845189977127913,0.003136554486796344,0.0002413059377071039
168,1456704149493571,0.0012186932443001973,0.004179604601790383,0.0003771720326650748
169,1456704149508572,0.0015614650263612616,0.005312967889959477,0.0006199322873243253
170,1456704149531045,0.0017877878304536242,0.006251765087061318,0.0009402826433104755
171,1456704149553510,0.0018471190143332671,0.006741037814480395,0.0012845443659704277
172,1456704149568511,0.0017502124260671303,0.006653399460960086,0.0015858974403552834
173,1456704149592513,0.0015691879487700182,0.006041377630676793,0.0017832384063677592
174,1456704149613514,0.001407736755007925,0.005121094699768199,0.001841575667726092
175,1456704149628929,0.0013542222151462205,0.004192773758006566,0.0017651577398361282
176,1456704149650417,0.0014410741336740493,0.0035294671724346517,0.0015966166665150076
177,1456704149673419,0.0016314379682688287,0.003278857029692935,0.0014013800265370872
178,1456704149688419,0.0018395975675177996,0.003418421420324379,0.0012434096807977686
179,1456704149712421,0.0019732813780228555,0.0037813063828169365,0.0011625851514586812
180,1456704149733429,0.001974371551209842,0.004137417667924807,0.001163228601105902
181,1456704149748434,0.0018376061642313593,0.004288949408749225,0.0012174080627440794
182,1456704149770435,0.0016027214962427664,0.0041371601913066675,0.0012793660180142276
183,1456704149793436,0.0013315065049221708,0.0036977144264944716,0.0013033731685547464
184,1456704149808437,0.0010850716979238912,0.0030700053312156536,0.001258157036628676
185,1456704149838865,0.000908893595100465,0.002384440016341237,0.0011346175050339683
186,1456704149853866,0.0008249573154031284,0.001753986873756762,0.0009466041798656782
187,1456704149868866,0.0008288382202100933,0.001246734930921756,0.000725728091430152
188,1456704149890868,0.0008921122096877516,0.0008831493198105822,0.000511523251581694
189,1456704149913870,0.0009714108070300805,0.0006514317303197579,0.00033929359760183174
190,1456704149934959,0.0010231663639461562,0.0005295145792946182,0.00022951523117238626
191,1456704149950954,0.0010196271168642077,0.0005025196140934769,0.000182933396223506
192,1456704149974956,0.0009596580183697555,0.0005685495829441953,0.00018333116993375648
193,1456704149995257,0.0008689483666358348,0.0007319114483957194,0.0002063278548728152
194,1456704150010956,0.0007886472018589894,0.0009892849565560006,0.0002298217096680473
195,1456704150033966,0.0007571531905603736,0.0013178970151194026,0.00024150669123028013
196,1456704150055305,0.0007934828087206762,0.001673114223933043,0.00024103456742138077
197,1456704150070975,0.000889772233907458,0.001997097205311033,0.00023715361302034018
198,1456704150093976,0.0010154700704472553,0.0022341519807787978,0.0002419120063632649
199,1456704150114978,0.0011300440762088799,0.0023455308287662446,0.00026441153801327395
200,1456704150131021,0.001197869405969449,0.002317602223508292,0.0003062361624564462
201,1456704150154249,0.001199182845655349,0.002161291852860227,0.0003599881742549709
202,1456704150175247,0.001133578660081855,0.0019049988008556324,0.0004113227969259602
203,1456704150191250,0.0010161188339039783,0.00158543888312509,0.000443660518312716
204,1456704150214242,0.0008692044669769133,0.0012403346958854632,0.0004438879003990358
205,1456704150234401,0.0007145826709695052,0.0009046410871110893,0.00040712895701935237
206,1456704150251409,0.0005689403413392564,0.0006097211013365767,0.00033900040536712626
207,1456704150274408,0.0004441644031722904,0.00038368300638145147,0.0002545310975739983
208,1456704150295409,0.0003506465402948705,0.00025121355769254825,0.00017406258026105898
209,1456704150311410,0.0003003467350134693,0.00023227160706308013,0.00011765144093533821
210,1456704150334138,0.00030688160321611324,0.0003401106158936865,0.00010011401803059694
211,1456704150357147,0.0003822881410659815,0.0005793930711184535,0.00012838465508827556
212,1456704150371148,0.0005322082245115099,0.0009443811568248005,0.00020153651807066088
213,1456704150394149,0.0007515293920123448,0.0014162924289531469,0.00031250853997647
214,1456704150417150,0.0010217468691755167,0.0019593829298247033,0.0004500797836438668
215,1456704150431162,0.0013109523411371238,0.0025175047508796166,0.000600104145921127
216,1456704150453456,0.0015775686838981596,0.003015333570117363,0.0007460462358848336
217,1456704150476456,0.0017787360114225937,0.0033690350149768312,0.0008697710822891762
218,1456704150491457,0.001882785720662172,0.0035084959954825887,0.0009537508376132658
219,1456704150520044,0.0018826942638885524,0.003407553766472705,0.0009851564786609037
220,1456704150536534,0.0018049808370667398,0.0031116813109375047,0.0009610241860351946
221,1456704150550535,0.0017079373086190273,0.0027477149700460258,0.000892502238833981
222,1456704150574536,0.0016658648955666577,0.0025017444965082774,0.000805764773236269
223,1456704150596538,0.001742197229033213,0.0025620977251305595,0.0007378961732898549
224,1456704150610538,0.0019615257700397724,0.0030425971198251717,0.0007278213482850782
225,1456704150634049,0.00229419892602121,0.003918396147968889,0.0008045822387492418
226,1456704150656556,0.0026635303102642855,0.00501000656865427,0.0009768887821373022
227,1456704150671556,0.0029747626712348122,0.006033099107336306,0.0012278742708546645
228,1456704150693558,0.0031527480008945417,0.0066996054996427135,0.0015172110233462363
229,1456704150716560,0.0031704830769834972,0.006828490330242186,0.0017901827440914484
230,1456704150738578,0.003056262932764409,0.0064177694222407565,0.001991241359394453
231,1456704150753579,0.0028777981369955455,0.005644985772945102,0.0020785712596928757
232,1456704150776580,0.002710583645074008,0.00479319440542461,0.002035935643196502
233,1456704150798581,0.00260370202098271,0.0041320607272110595,0.0018781534052862525
234,1456704150813583,0.0025589737869838648,0.0038063547049086983,0.0016474278477343826
235,1456704150836660,0.0025350482776951306,0.0037841655895482886,0.0014005951351492632
236,1456704150857697,0.0024744129721037465,0.0038892447067156127,0.001191852968259432
237,1456704150873728,0.002336602431514524,0.003898212280768069,0.00105829637400074
238,1456704150896663,0.002118446744014899,0.0036502571291912667,0.0010132779559296284
239,1456704150917663,0.0018538489445464928,0.0031150072326797604,0.0010470677302166975
240,1456704150933705,0.0015986012634689143,0.0023919489063612912,0.0011313046468027427
241,1456704150956676,0.0014095156078795172,0.0016520897419714886,0.0012254806290871844
242,1456704150977678,0.001324406232298876,0.0010577441373016826,0.0012861325048321832
243,1456704150993878,0.0013477748753644087,0.0006993499877507437,0.0012784319237857714
244,1456704151016898,0.0014472571051999043,0.0005729840074099238,0.001186613504256468
245,1456704151038890,0.0015637834450994339,0.000600187627272278,0.0010184026461526052
246,1456704151054103,0.0016326631503416032,0.0006738964676655185,0.000801273519802818
247,1456704151077105,0.0016070581307972341,0.0007068109242575701,0.0005727937957545644
248,1456704151097912,0.0014739478968009052,0.0006621535914457249,0.0003698250497047959
249,1456704151113894,0.0012565873857004906,0.0005578999830641783,0.00022049975208403926
250,1456704151136194,0.0010038184256649914,0.00044822372275704067,0.00014028694650425783
251,1456704151158319,0.0007716995098440081,0.00039427327878729094,0.00013145011796252616
252,1456704151174316,0.0006048201704327419,0.0004377357969222267,0.00018467163943798856
253,1456704151195312,0.0005236377872488664,0.0005861432119838254,0.0002819591256357073
254,1456704151218199,0.0005213911299368097,0.00081224269764615,0.00040033739034543367
255,1456704151234402,0.0005705871315074401,0.0010645746410013132,0.00051596313685271
256,1456704151256374,0.0006356877813281348,0.0012841092533443779,0.0006082367027614632
257,1456704151278385,0.0006866920839783647,0.0014216294078179725,0.0006633312679268504
258,1456704151293385,0.0007085681754953922,0.0014511782071031623,0.0006764161228291854
259,1456704151315402,0.000703493794835111,0.001375859910688187,0.0006518543103869361
260,1456704151338386,0.0006856786709656128,0.0012241233197862495,0.000600973748470996
261,1456704151353324,0.0006714961792619737,0.001037793565564934,0.0005377819282402559
262,1456704151375380,0.000669762691582029,0.0008566242904625159,0.0004740568827979863
263,1456704151398328,0.000676867148401396,0.0007058535135165526,0.0004158920795890149
264,1456704151414328,0.0006787537362399268,0.0005916474849752285,0.0003632367103516975
265,1456704151436347,0.0006581340893085302,0.0005052228484484209,0.0003124025890669107
266,1456704151459181,0.0006029357833615503,0.0004323876337514998,0.000259979312950451
267,1456704151473379,0.0005119233695787142,0.00036338501728625937,0.0002060648547379493
268,1456704151495377,0.00039537243917689104,0.00029874627369406406,0.00015532444900231103
269,1456704151518377,0.00027142684191000955,0.0002494544938389107,0.00011564632365814996
270,1456704151534349,0.00016066756911972555,0.00023262919377875296,9.535879308756942e-05
271,1456704151555711,8.150529211403808e-05,0.0002657975217813398,0.00010053500297543108
272,1456704151578712,4.7781153849890146e-05,0.00036279533179469416,0.00013363689260280058
273,1456704151593712,6.855804947285661e-05,0.0005325550668893426,0.00019383883786056226
274,1456704151615988,0.00014909585541579454,0.0007796180394000233,0.00027834802619466876
275,1456704151639657,0.0002915006198481773,0.0011036963186385528,0.000383529196878413
276,1456704151653658,0.0004936684141899373,0.0014960402331041368,0.0005049379037301014
277,1456704151675888,0.000746116975492228,0.0019327462916736396,0.0006361922399418674
278,1456704151698661,0.00102790207032308,0.0023683865272850655,0.0007674274079352563
279,1456704151713663,0.001304302244486907,0.0027356357166861047,0.0008845079982555363
280,1456704151735546,0.001529443752070203,0.0029561685861044353,0.0009700983909522383
281,1456704151749596,0.0016559124978067137,0.0029642377301872854,0.0010071061526169508
282,1456704151771842,0.0016505238776812344,0.002737858616624503,0.0009840019337346631
283,1456704151795557,0.0015114959353696449,0.0023259614878742563,0.0009004090772631307
284,1456704151809564,0.0012791438857201022,0.001856805246474891,0.0007707495654010856
285,1456704151832069,0.0010323362875864382,0.0015164071362326623,0.0006241135526514469
286,1456704151854582,0.0008677848310918601,0.0014962947275824364,0.000499751541070345
287,1456704151869620,0.0008674777570679523,0.0019244820376400666,0.00043898922755108966
288,1456704151891586,0.0010669870990735893,0.0028056781085895426,0.00047528168218992985
289,1456704151915844,0.001439301994244166,0.003998621208452477,0.0006244217095999296
290,1456704151929806,0.0019032189928410307,0.0052461833122766765,0.0008770845593144661
291,1456704151951747,0.0023540322255028714,0.0062520155664253655,0.0011963674256216493
292,1456704151974534,0.00270285120001406,0.006777180308661715,0.0015230168177989153
293,1456704151989606,0.0029062976811683257,0.006721339135903309,0.001789070285119092
294,1456704152011751,0.0029738779597105296,0.0061582072100489025,0.0019367125598077012
295,1456704152034973,0.00295211973762245,0.0053105210253461535,0.0019358853174244312
296,1456704152050295,0.0028949907955944736,0.004470624695938696,0.0017941413337641248
297,1456704152072268,0.0028346264053018782,0.0038940945761441817,0.0015551246205829335
298,1456704152095284,0.0027654701352887896,0.0037082266323897437,0.0012858759085597827
299,1456704152110355,0.0026498286803559334,0.00387453632551168,0.0010567611384770278
300,1456704152132067,0.0024430959203082052,0.004220392042666541,0.0009207315156196815
301,1456704152154875,0.0021251019254711154,0.004520897538622111,0.0008993710363234598
302,1456704152169627,0.0017188216899940544,0.004589650843203374,0.0009802661828636817
303,1456704152191802,0.0012854448263203623,0.004339103875646857,0.0011248644186885616
304,1456704152214802,0.00090021741131642,0.0037925779463052916,0.0012818991868723904
305,1456704152229882,0.0006238741815230482,0.00305466904212501,0.0014011027354481143
306,1456704152252351,0.00048334303003737527,0.002261832690768532,0.0014441202952391935
307,1456704152275179,0.00046723781037323587,0.0015365596432048714,0.001391518047791927
308,1456704152290181,0.0005342920307328235,0.0009602013767504876,0.0012454476000508508
309,1456704152312347,0.0006293713217513957,0.0005674620712710984,0.0010277696486320187
310,1456704152334928,0.0007008893136994251,0.0003559079164095646,0.0007741335662164413
311,1456704152349438,0.0007142810399891616,0.0003004327745466942,0.0005254772626338086
312,1456704152371442,0.000658413582615896,0.00036538236739551156,0.00031903337119455494
313,1456704152394649,0.0005445655726225055,0.0005122147637725981,0.00018091087255873485
314,1456704152409699,0.0003996947390311712,0.0007040209994528066,0.00012177032669355293
315,1456704152432330,0.0002567785823685445,0.0009086487383733705,0.00013630807838422361
316,1456704152455165,0.0001453291096745328,0.0011010174559951001,0.00020641425640115446
317,1456704152470166,8.477509701249834e-05,0.0012643158058400987,0.0003070052282967522
318,1456704152492315,8.209882218895045e-05,0.0013897450607499057,0.00041280453685987124
319,1456704152515168,0.00013329522461944483,0.0014749080236125048,0.0005041352551458394
320,1456704152529963,0.00022691946533704075,0.0015213081285260276,0.0005702534233374862
321,1456704152551836,0.0003478704266979686,0.0015315784309717956,0.0006096312544185366
322,1456704152575198,0.00048026896797839227,0.0015071452033320633,0.0006275579188229024
323,1456704152590134,0.0006091014554203641,0.0014471053322856944,0.0006322249126568408
324,1456704152613843,0.0007208752971297164,0.0013489817126868526,0.0006308033811486436
325,1456704152635146,0.0008038509696965654,0.0012114660240390253,0.00062674214280935
326,1456704152650140,0.0008484922694259462,0.0010382897299143963,0.0006188821774764364
327,1456704152672141,0.0008486098151326494,0.0008414732809728029,0.0006023987662783954
328,1456704152695143,0.0008031748691966779,0.000642033957624358,0.0005711622477990458
329,1456704152710144,0.0007180023957634338,0.0004670646925755112,0.0005207753618975202
330,1456704152732163,0.0006060325906000797,0.000343727320031075,0.0004513253598977243
331,1456704152754973,0.000485513752852122,0.0002925094282013635,0.0003689274053264729
332,1456704152769965,0.0003767877240582309,0.00032297947092303195,0.00028552007980705717
333,1456704152792254,0.00029930409778979,0.0004342175962540155,0.00021699934437940978
334,1456704152815233,0.00027001667455133437,0.0006193343197383297,0.00018036323488820452
335,1456704152837901,0.0003029613322819531,0.0008707984847358152,0.00019077793484216198
336,1456704152851574,0.0004087523235738488,0.0011826470075965434,0.00025919515514662356
337,1456704152874570,0.0005926417458467741,0.0015475534235691504,0.00039049811187640563
338,1456704152897720,0.0008507667940831931,0.001949992848136013,0.0005816793902213225
339,1456704152912571,0.0011659222886945923,0.0023595706445910494,0.0008198206322322618
340,1456704152935298,0.0015056479503803247,0.0027296988244296704,0.0010805707980732317
341,1456704152957591,0.0018253751957602322,0.0030056297420856344,0.0013286587878627966
342,1456704152971597,0.002077531672742951,0.0031423829890278505,0.0015220449654507584
343,1456704152994598,0.00222486986935834,0.0031280526153307777,0.0016204829944125275
344,1456704153017937,0.002254063968593005,0.003002992533860602,0.0015976604279252745
345,1456704153032388,0.0021842855354055786,0.00286292857118102,0.0014538801013338697
346,1456704153054704,0.00206564183307022,0.002837106058541284,0.0012241238727596152
347,1456704153078005,0.0019654197129122075,0.0030429641385861673,0.000975886695245784
348,1456704153091999,0.0019461418844268909,0.0035335285394377867,0.0007939577561301227
349,1456704153115062,0.0020448386388383843,0.00426306276804715,0.0007550756845122053
350,1456704153137798,0.0022623800635009194,0.005090695537512985,0.0009011491380292876
351,1456704153152090,0.002565141214939232,0.005822423455028554,0.001221792778204512
352,1456704153174800,0.0028955070145111833,0.006273408560872875,0.0016538080895399558
353,1456704153198127,0.0031874817113409365,0.006327237773654955,0.002098575814441486
354,1456704153212097,0.003385082039125801,0.0059748369127805845,0.002451390167763938
355,1456704153234808,0.003459055716715663,0.00532279434692648,0.002632632810598044
356,1456704153257831,0.0034139357793523686,0.004565271285062073,0.00261074097153174
357,1456704153271826,0.0032789624260531358,0.0039216349118091475,0.0024102386155366346
358,1456704153303830,0.003085436207469962,0.0035576618168894148,0.0021026661849817257
359,1456704153317833,0.0028443938151641816,0.003523057446019224,0.001782917955990439
360,1456704153332242,0.0025417943135155907,0.0037364891516324973,0.0015381533648454362
361,1456704153354996,0.002157222358928181,0.004026406792982873,0.0014200910810341736
362,1456704153377997,0.001693445959507612,0.004205949725166263,0.0014312984263929436
363,1456704153391988,0.0011946509655669161,0.004144408715586448,0.001530193792021197
364,1456704153414926,0.0007396555996182884,0.0038049562492461523,0.0016506406164355602
365,1456704153437918,0.0004142398266997328,0.003240079006045116,0.001726154003082686
366,1456704153451584,0.00027851577153131156,0.002556580380020481,0.001709264111078004
367,1456704153474948,0.0003446655858574685,0.0018709833447194265,0.0015815468713109896
368,1456704153497580,0.0005723032611680799,0.0012735351962420238,0.001354713407985925
369,1456704153512580,0.0008806761164972858,0.0008105267210025211,0.0010651101578933596
370,1456704153535091,0.0011723482075505828,0.00048573428146731146,0.0007635870465970882
371,1456704153557432,0.0013612791541397968,0.00027530293163605856,0.0005023118205435179
372,1456704153579427,0.0013976715498403495,0.00014735982590371012,0.000321084897875667
373,1456704153594763,0.001282238807285697,7.816003660792917e-05,0.00023706734870190314
374,1456704153617730,0.0010646941403788953,5.97586936528351e-05,0.0002416302620502655
375,1456704153632222,0.0008260073076843923,9.844144214335212e-05,0.0003056058892696195
376,1456704153654846,0.0006500338725047636,0.0002066992726234022,0.00039078657836057526
377,1456704153677554,0.000594627093948874,0.00039326461010608446,0.00046293403813905547
378,1456704153691735,0.000672989608506646,0.0006553655673624261,0.0005011767414730318
379,1456704153714660,0.0008523111857666359,0.0009754962212470073,0.0005008261126408086
380,1456704153737656,0.0010697122832967708,0.0013228653654674591,0.0004701533658621839
381,1456704153751666,0.0012578396657487612,0.0016583817158700362,0.0004242033669335347
382,1456704153774668,0.001368297971448889,0.0019416449678955126,0.00037878790311513205
383,1456704153797948,0.0013833941041014764,0.0021382136599466285,0.0003462072998487987
384,1456704153811896,0.0013138763820150358,0.0022252242398357095,0.00033288306898900295
385,1456704153835111,0.0011873089729653218,0.002193982963690091,0.0003387010193809841
386,1456704153858226,0.001034363865451506,0.002049682110863095,0.00035785596995371177
387,1456704153872105,0.0008786795652246689,0.0018097222833945259,0.0003808332446531216
388,1456704153895300,0.0007326450594156839,0.0015020021876223054,0.0003970281868774759
389,1456704153918301,0.0005986652429171627,0.0011632675493497226,0.00039755205777078145
390,1456704153932285,0.0004738468757581694,0.0008365559486009634,0.00037780598841139146
391,1456704153955640,0.0003555769682594148,0.0005668147723406152,0.00033931579323914725
392,1456704153977648,0.00024589666696370595,0.0003948203081653899,0.0002902793513360339
393,1456704153991643,0.00015349216180423632,0.0003509362381164646,0.0002444676868734222
394,1456704154014644,9.309607650122486e-05,0.00045104006466215713,0.00021856912398031527
395,1456704154037757,8.281027727699355e-05,0.0006961784426166352,0.0002286416378720195
396,1456704154059766,0.000140177102582198,0.0010752338593704423,0.0002867210440450879
397,1456704154075063,0.0002778380210872697,0.0015676550608958455,0.00039843724784935337
398,1456704154097767,0.0004995885940622447,0.0021431398384110243,0.0005617260476432304
399,1456704154120051,0.0007976253229524472,0.002757697582308185,0.0007660609648924948
400,1456704154134937,0.0011516295554487824,0.003349369122915086,0.0009918164798670794
401,1456704154157022,0.0015301222227597805,0.00383962796108202,0.001210362240720208
402,1456704154189023,0.001894494643609601,0.0041460900110987155,0.0013864368432651595
403,1456704154195023,0.002206049636189922,0.004207866929245222,0.0014843630319715325
404,1456704154217199,0.002435566428089767,0.004017703426059043,0.001478313682797588
405,1456704154240134,0.002573098833676486,0.0036477000956775243,0.0013643700925264832
406,1456704154254880,0.0026338846466197607,0.003252015497604554,0.001169616876160162
407,1456704154276846,0.0026560982689593344,0.003034600943856101,0.0009526454372834494
408,1456704154300057,0.0026889545258507205,0.0031840820801509167,0.0007918631236777369
409,1456704154314982,0.002774696699622714,0.0037965213834902914,0.000762835689633514
410,1456704154336609,0.0029321857260925254,0.004819210636180767,0.0009117496095569077
411,1456704154360123,0.003149619166643698,0.0060448491660212555,0.0012358348320639634
412,1456704154374124,0.0033888662442721714,0.007165301728628725,0.0016801248567923043
413,1456704154404126,0.003597815251703234,0.007868812502041637,0.0021528951490729403
414,1456704154419127,0.003724856332153992,0.007946903782237027,0.002553500732484379
415,1456704154434633,0.0037318029129871275,0.007372241467008158,0.0028016851439340495
416,1456704154457193,0.003603537689432516,0.006315951516410742,0.0028588081256267013
417,1456704154480145,0.003351164699964196,0.005092066499545408,0.0027360051408778525
418,1456704154495190,0.0030047922087119787,0.0040455535927676955,0.002488248986299586
419,1456704154516514,0.0025981613253068486,0.0034276816598115857,0.0021959531615935125
420,1456704154540255,0.0021558876861965687,0.0033116938327350373,0.0019389255125716596
421,1456704154555281,0.0016936695459462848,0.0035838024124006905,0.0017713256681006512
422,1456704154577278,0.0012303415181744576,0.004008005958730941,0.0017074913535020607
423,1456704154600257,0.000799848291951612,0.004329501200588924,0.0017238762346724827
424,1456704154614260,0.0004517540218894298,0.004368691932651052,0.0017739162941184268
425,1456704154637088,0.00023837935954622693,0.00406951865462954,0.001806877859636975
426,1456704154668584,0.00019529619597555202,0.003492108729956466,0.0017826374596599543
427,1456704154674944,0.00032442126034781446,0.0027654586726920663,0.0016793963408884708
428,1456704154696586,0.0005868933682247617,0.0020290035384399477,0.0014954040921147953
429,1456704154719871,0.000909181706296729,0.0013889670481382756,0.0012467492751353781
430,1456704154735373,0.0012014776538854046,0.000901557927841578,0.000962608635835998
431,1456704154757380,0.0013829368539950958,0.0005796944697799111,0.0006788610323621899
432,1456704154779383,0.0014052729347802239,0.00041072101944891146,0.00043105080885531756
433,1456704154795384,0.0012663055152979245,0.0003724360663411898,0.00024785839743563036
434,1456704154817384,0.0010087817948082978,0.00044121930292049865,0.00014618358095540616
435,1456704154840467,0.0007054836028252025,0.0005933347858472365,0.00012869988068310833
436,1456704154854802,0.0004364896085735755,0.0008038044196619089,0.00018435215421193506
437,1456704154876476,0.0002664860826467252,0.0010461381325647739,0.00029164972019901555
438,1456704154899472,0.00022898001948495756,0.0012935722678618867,0.0004238192401662893
439,1456704154914473,0.000321085462352047,0.001520897218258702,0.0005543380126999917
440,1456704154937268,0.0005086109200511478,0.0017058868780382662,0.0006614104693156752
441,1456704154960093,0.0007380725702359084,0.0018300132580510733,0.0007305005686902679
442,1456704154974813,0.0009511326493937001,0.0018788507074822775,0.0007547875532434169
443,1456704154996813,0.0010977136219342408,0.001842935125555039,0.000734089752762851
444,1456704155020031,0.0011455664313610283,0.001719605146059079,0.0006731786561027049
445,1456704155035222,0.0010852752400926848,0.0015156168905045603,0.0005803485796959969
446,1456704155056774,0.0009302528741878783,0.0012495470379462826,0.0004666261072012784
447,1456704155079770,0.0007118197662689261,0.0009526234525059924,0.00034532690072805336
448,1456704155094998,0.00047062394977099404,0.0006668094157286609,0.00023124364539264466
449,1456704155117002,0.00024704969491966565,0.0004397042679313703,0.0001389561934936915
450,1456704155140100,7.367614817406855e-05,0.000317031214341095,8.049869940141299e-05
451,1456704155154799,-2.828713477053053e-05,0.00033470983506032876,6.331224965802152e-05
452,1456704155177134,-4.868379296618947e-05,0.0005127713062782695,8.943385484047062e-05
453,1456704155200134,1.400999928750223e-05,0.0008521019492891109,0.00015611368915696634
454,1456704155215018,0.00015501697297952896,0.0013332028718058004,0.00025708232832294224
455,1456704155237114,0.0003642267386951455,0.0019156941016925458,0.000383327519899883
456,1456704155260163,0.0006260598702220808,0.0025388438840099666,0.0005228469386746425
457,1456704155275167,0.0009196765428113942,0.003125727287894562,0.0006599835546595548
458,1456704155296835,0.0012210720067062973,0.0035946240694476024,0.0007757273555647376
459,1456704155319843,0.0015073325012147246,0.0038792782585906588,0.0008501558355454729
460,1456704155342160,0.0017613074528926346,0.003954407646912672,0.000867110225703251
461,1456704155357251,0.0019737160068723785,0.0038564477551015185,0.000819917109607193
462,1456704155379160,0.0021407180211845266,0.0036861352688573623,0.000716065982811775
463,1456704155403177,0.002258220935559233,0.003583407337673955,0.0005785853336383959
464,1456704155417179,0.00231759263221075,0.0036773494607826446,0.00044263741639071695
465,1456704155440249,0.0023079557145255533,0.004029823317679981,0.00034750500959192135
466,1456704155462342,0.0022261914071395523,0.0046004683603945,0.0003260691989189709
467,1456704155477244,0.002089039533256047,0.0052535063210323585,0.0003952063150160027
468,1456704155500249,0.001937406692454912,0.005805125723188076,0.000550587164756073
469,1456704155523288,0.0018260830713899027,0.006089057941228145,0.0007678801447142081
470,1456704155537093,0.0018019660346343118,0.006011959910074852,0.0010097668421326085
471,1456704155559134,0.001883128816904599,0.005580400666345438,0.0012357772466519905
472,1456704155583169,0.002051418679300223,0.004896599471374759,0.00141132078874318
473,1456704155597172,0.002262077569397693,0.0041298071761485065,0.0015138627165737209
474,1456704155620171,0.0024627735450590198,0.0034720977352322778,0.0015363697121883416
475,1456704155642859,0.0026097455294569884,0.003086418623958426,0.0014886252972659542
476,1456704155657121,0.0026730257897888575,0.0030569391382888208,0.001395563246641791
477,1456704155679862,0.002632369114391114,0.0033571584492310003,0.0012908836926715046
478,1456704155703130,0.0024734096639088556,0.003852497806347161,0.0012062305961441711
479,1456704155717130,0.0021925571455929235,0.004343445803789455,0.0011600691516103962
480,1456704155739452,0.001808939635959234,0.0046353365901207035,0.0011521945007634683
481,1456704155763469,0.001371947531231828,0.004605022630934597,0.001166906701890724
482,1456704155776739,0.0009540559991071087,0.004235334271711257,0.0011822690910316734
483,1456704155799860,0.0006296192716638158,0.0036054343315345383,0.001179407872053521
484,1456704155822763,0.0004503440805098847,0.0028476587059374776,0.0011472242704152263
485,1456704155836971,0.00042913251071904804,0.0020954098848414157,0.001082190984189076
486,1456704155859489,0.0005378010427565292,0.0014453810783662433,0.000986007874261668
487,1456704155882716,0.000717450331322344,0.0009446936477720582,0.000863755030175926
488,1456704155896484,0.0008966850747572759,0.0005992775845168902,0.0007231302440630591
489,1456704155919789,0.0010120147356788235,0.00039186346787781727,0.0005739617468456323
490,1456704155942842,0.001025034645361548,0.00029814401128563554,0.00042739451644910136
491,1456704155956804,0.0009317567286286597,0.0002951952748420682,0.00029487574086337347
492,1456704155979801,0.0007612012482885357,0.0003626309365068326,0.00018718537450350853
493,1456704156002020,0.0005635820844500718,0.00048055746580183417,0.00011342241269910522
494,1456704156017024,0.0003922629032130112,0.0006282043945115996,7.977142512088677e-05
495,1456704156039518,0.00028614128966197947,0.0007847592333638653,8.820897471479213e-05
496,1456704156062148,0.0002588345037955979,0.0009317613383736048,0.00013564900839058158
497,1456704156077146,0.000298126744144052,0.0010555656118463662,0.00021397661441928292
498,1456704156100153,0.0003748537225594303,0.0011486902513056997,0.00031106510805354996
499,1456704156122151,0.0004565384003709938,0.0012096172329994273,0.00041260550825545625
500,1456704156136968,0.0005194632575890513,0.0012413070768102646,0.0005045367208261161
501,1456704156159793,0.0005544368638916084,0.0012491325723067528,0.0005757615201573624
502,1456704156181757,0.0005654470530231432,0.0012390375067234782,0.0006204513906647737
503,1456704156196758,0.0005640808573721162,0.0012163800216178676,0.0006388956764380144
504,1456704156219991,0.0005635552751394365,0.0011852776071356072,0.0006361282373067159
505,1456704156242205,0.0005744459589995933,0.0011478725722123986,0.0006186215724312312
506,1456704156257206,0.000602058971680174,0.0011032330158282071,0.0005905638078657181
507,1456704156279208,0.0006448570273099322,0.0010464209106905964,0.0005517268080879493
508,1456704156301421,0.0006941962149326556,0.0009689098150744674,0.0004982630708966648
509,1456704156317209,0.0007362013561271256,0.0008613842415655626,0.0004262583684488249
510,1456704156340115,0.0007558949628046097,0.0007188571007258577,0.00033630103485720605
511,1456704156361121,0.0007423523963858353,0.0005464487127008382,0.00023655695937064157
512,1456704156376123,0.0006930647600713574,0.000363005337694782,0.00014243253118455815
513,1456704156400149,0.0006161906500669436,0.00020003641543568217,7.268480498458916e-05
514,1456704156422143,0.0005300320655950397,9.549229564890643e-05,4.369422785435701e-05
515,1456704156437116,0.00045938100992370137,8.450275693327684e-05,6.434198286373533e-05
516,1456704156459305,0.0004291600314610018,0.0001905927145269477,0.00013335296798811845
517,1456704156482145,0.0004574608203080766,0.0004204760894793844,0.00023986607953976964
518,1456704156506148,0.000551241941385959,0.0007639547587246969,0.0003670018152126594
519,1456704156520144,0.0007067506717394282,0.0011982928289335259,0.0004972656087022482
520,1456704156542114,0.0009135416680317094,0.0016940771137386444,0.0006177397423227851
521,1456704156566144,0.001158424149852879,0.002218404294145186,0.0007227786357318394
522,1456704156579114,0.0014260866136227668,0.002733107484386478,0.0008129088762001837
523,1456704156602139,0.0016962334937329537,0.0031903208557741386,0.0008904885918242599
524,1456704156626100,0.0019403882588037533,0.0035317104811467587,0.0009543411420179299
525,1456704156639844,0.0021227009863995414,0.0036976808746871847,0.0009962301642768181
526,1456704156661343,0.0022074004118017034,0.003647913437647602,0.0010015109572766264
527,1456704156686343,0.0021718349113914793,0.003386830537509108,0.0009547851369124165
528,1456704156699645,0.0020201154153181716,0.0029811353369831447,0.000849227932472263
529,1456704156721630,0.001790276942725088,0.002556122106261427,0.0006959637981619873
530,1456704156745693,0.0015494370325887371,0.0022655686632208774,0.0005284508402584743
531,1456704156759848,0.0013768251474604238,0.0022438710467136084,0.0003977240310803333
532,1456704156781788,0.001340831105726654,0.0025600028425903473,0.00035815536179212016
533,1456704156805851,0.0014787850716643433,0.003192345508228769,0.00044848569057342585
534,1456704156819845,0.001785612728035511,0.004031686568651421,0.0006760443629383816
535,1456704156841359,0.002213315900638095,0.004906876650584912,0.001011119647299804
536,1456704156865356,0.002680974859705157,0.0056234785373658015,0.0013939243503347089
537,1456704156879356,0.0030940795875806933,0.006008976010073463,0.0017512049306980958
538,1456704156901357,0.003370061149606979,0.005959436992977905,0.0020162537795284023
539,1456704156926151,0.003463341656891962,0.0054772475022665705,0.002146130083175322
540,1456704156939663,0.0033800799960451455,0.0046835892891359445,0.002132025954329461
541,1456704156962160,0.003173677676359385,0.00379212875707164,0.0020008150088208633
542,1456704156984167,0.0029194618724327857,0.003044649346463214,0.00180711799699545
543,1456704156999168,0.002678703269499661,0.002628815182479352,0.0016167700562152952
544,1456704157021168,0.0024711863145540003,0.002611741471131955,0.0014855903757635173
545,1456704157044635,0.002273485777248944,0.0029202739969369073,0.001440902356438308
546,1456704157059423,0.0020446131172355752,0.003377759325296454,0.0014740216768640076
547,1456704157081582,0.0017617280013804359,0.0037787314607424256,0.0015474345562069597
548,1456704157104390,0.0014420242658276156,0.003965364699658276,0.0016126273737610299
549,1456704157119637,0.0011380897829671474,0.0038730180464093375,0.0016291201649610704
550,1456704157142102,0.0009122033521791221,0.0035317830190823526,0.001576080969801533
551,1456704157165120,0.0008059949780803449,0.0030328879738756795,0.001453570185568048
552,1456704157188120,0.0008212143259815407,0.002481702495756849,0.0012763953200355602
553,1456704157202105,0.0009192959003183234,0.001959422230259097,0.00106612900228327
554,1456704157225097,0.0010377356122524526,0.0015063943652056735,0.0008454678318847896
555,1456704157239831,0.0011142677237438792,0.001127557686937852,0.0006357677170081576
556,1456704157262339,0.001107987271285302,0.0008107889195848613,0.00045601534410285026
557,1456704157284641,0.0010098471583083158,0.0005458876168218081,0.0003212145701896275
558,1456704157299639,0.0008407615698197392,0.00033528828124918214,0.0002397353637374408
559,1456704157321627,0.000640561763418998,0.0001938709040052492,0.0002109575505796546
560,1456704157344763,0.0004533161293498416,0.00014060015794639343,0.00022511407578567968
561,1456704157359436,0.00031414394063403287,0.00018731533013446744,0.00026625727190225147
562,1456704157381831,0.00024094989913080048,0.0003300034126864508,0.00031748180447538837
563,1456704157404764,0.00023263986070909228,0.0005462179198305889,0.0003661294053258938
564,1456704157419439,0.0002736385364175454,0.0007997174797566681,0.0004065485349416007
565,1456704157441469,0.0003426804527128349,0.0010505175818910219,0.0004392539058330008
566,1456704157464470,0.00042202409906217346,0.00126618723107652,0.0004673800060723175
567,1456704157479471,0.0005026581486131725,0.0014294993663781096,0.0004928220416110619
568,1456704157501756,0.0005831960601721687,0.0015392640319862624,0.0005142839107810487
569,1456704157524814,0.000664387736745822,0.0016047120429488301,0.0005278392647311463
570,1456704157539864,0.0007441836839934146,0.0016370458031858277,0.0005289754260567035
571,1456704157561334,0.0008171865767343882,0.001642704985337556,0.000514585971570545
572,1456704157584637,0.0008781373531982934,0.0016211641131358508,0.00048399276148418195
573,1456704157600335,0.000925746658120382,0.001567139441659432,0.0004390134727877595
574,1456704157621629,0.0009633783552373559,0.0014749483711768944,0.0003835849419588987
575,1456704157644763,0.0009959905179735577,0.001342548273080817,0.0003232775910028308
576,1456704157659760,0.0010255244112371182,0.0011740112481632978,0.00026457073462234765
577,1456704157681432,0.0010475943615623512,0.0009804342000090407,0.00021363214722570591
578,1456704157704694,0.0010511187919764904,0.0007796206228812253,0.0001747791124746077
579,1456704157721666,0.0010211493108441918,0.000594608600878551,0.0001493428201102494
580,1456704157741670,0.000944500238687196,0.00045095445976961815,0.00013573702291715033
581,1456704157764664,0.0008170492003563263,0.00037284294918132774,0.00013101483411160738
582,1456704157781666,0.0006501873225307854,0.0003786411827908548,0.00013334376503788004
583,1456704157801958,0.000473084800789036,0.00047743582435503905,0.0001441012821609037
584,1456704157824969,0.00032869379314266045,0.0006685575964676696,0.00016825891271907067
585,1456704157847983,0.00026428601078157363,0.000944829333084605,0.00021258511996384048
586,1456704157862136,0.000319839931459818,0.001297500051957148,0.00028240804077003806
587,1456704157885166,0.0005181368585871137,0.001718770908047882,0.0003784171939829065
588,1456704157907135,0.0008588720153478873,0.002198588683004829,0.0004948665506167984
589,1456704157923169,0.0013168396069777703,0.0027159933023755104,0.0006197428645137887
590,1456704157944301,0.001843240167954068,0.0032297486765148894,0.0007365465064116617
591,1456704157966304,0.0023701160175544746,0.0036755639949624347,0.0008269740222642904
592,1456704157981300,0.0028194793893379557,0.003976040101023443,0.0008741463432513891
593,1456704158004520,0.003118537654234327,0.00406444029833947,0.000866446027076751
594,1456704158027836,0.00321946972709163,0.003916129818532052,0.0008017791164864387
595,1456704158041541,0.00311781489403745,0.003574950058574618,0.000691135182339062
596,1456704158064547,0.0028607930732631195,0.003159521599602133,0.0005593926878373105
597,1456704158086764,0.002538729362417639,0.0028395400903930335,0.0004414701060608511
598,1456704158102759,0.002259687589266053,0.0027845701598015827,0.000373806816831007
599,1456704158124779,0.0021161234121025206,0.0031028975212747767,0.0003839392029875332
600,1456704158147803,0.0021574341023687456,0.0037969112856222112,0.00048241172538577377
601,1456704158165784,0.002380071411810409,0.0047561872785845515,0.0006599413802631013
602,1456704158185124,0.0027378996151439577,0.005790617614616542,0.0008897900225495161
603,1456704158207069,0.0031644128579722463,0.006686393285045867,0.0011334339678332657
604,1456704158221792,0.003592870666480857,0.007261880634412129,0.0013479441062800813
605,1456704158245160,0.003965639331754788,0.007409516669035604,0.0014943717003742447
606,1456704158267888,0.004235763345238587,0.007121269725650728,0.00154619523654517
607,1456704158283083,0.004370123375664537,0.006497487111529512,0.0014960048327543113
608,1456704158305082,0.004357857297073832,0.00573298093104915,0.0013584849136247178
609,1456704158326834,0.004216864580718069,0.005071219800040328,0.0011686780815435766
610,1456704158342140,0.003987709909773777,0.0047277805222593235,0.0009756177020243513
611,1456704158364157,0.003712864601400643,0.004805974390433983,0.0008320929097428634
612,1456704158388157,0.003413111161219771,0.005244714781429452,0.0007820179356533193
613,1456704158403159,0.003079737101071392,0.005832279765213099,0.000848224323800442
614,1456704158425160,0.002692325786972922,0.006286947121392496,0.0010246026531486963
615,1456704158447183,0.0022517253766527797,0.006367579174201695,0.001275668741371457
616,1456704158461183,0.001803293966044614,0.005961641413955174,0.0015439530817247778
617,1456704158484397,0.0014310255451391496,0.00511395275184802,0.0017632983400441467
618,1456704158507452,0.001223843724609873,0.003992449719488921,0.001875277386309016
619,1456704158522519,0.0012331952301112173,0.00281561624044881,0.001845333243026758
620,1456704158552122,0.0014443244512142154,0.0017768465025288361,0.0016741762028076126
621,1456704158576148,0.0017744831954788383,0.0009940198523933478,0.0013998484298225204
622,1456704158583148,0.0020984430677831382,0.0004964326806873049,0.0010882388373185136
623,1456704158605144,0.002291395538349413,0.0002449890615627097,0.000814223464169086
624,1456704158627923,0.0022736461479295946,0.00017044372731615012,0.0006397369743933815
625,1456704158643216,0.0020405351584248605,0.00021046328755760705,0.0005965787812912756
626,1456704158664219,0.0016653891380057075,0.00032984629891468794,0.0006796699433987378
627,1456704158688219,0.0012731981996262952,0.000518234120754942,0.0008518245558722589
628,1456704158704220,0.000994941332171863,0.0007717398322067948,0.0010564732548029854
629,1456704158725221,0.0009209119257627975,0.0010727971073323703,0.0012328952890233798
630,1456704158748367,0.0010714610344892909,0.0013817778047275956,0.00132996220845897
631,1456704158763369,0.0013954900395548512,0.001645255529062198,0.0013168154179255714
632,1456704158784670,0.0017946056844179853,0.0018148964845113116,0.0011896161339544895
633,1456704158807742,0.00215966027154353,0.0018649438745470248,0.0009727084562397702
634,1456704158823371,0.002402680162713973,0.0017986028691138855,0.0007126396953621281
635,1456704158847166,0.0024736362402616742,0.0016417171220435727,0.00046568659967218494
636,1456704158867208,0.002362619517771637,0.0014297713650183181,0.00028239526811316227
637,1456704158883166,0.002094178650497631,0.001196546839675407,0.00019403611089324895
638,1456704158905167,0.0017185448009955843,0.0009691111763112545,0.00020517317605469262
639,1456704158927745,0.0012998757578463675,0.0007678879698553853,0.000294462738257934
640,1456704158943258,0.0009011633041927762,0.000607375776811162,0.0004231151596130979
641,1456704158964261,0.000569185886022518,0.0004948438408180127,0.00054781679069979
642,1456704158987268,0.00032555704694792886,0.00042824716741577605,0.0006333791122294482
643,1456704159003262,0.00016772339577859194,0.0003962492541444491,0.0006609848584700549
644,1456704159025263,7.851256332787143e-05,0.00038163014795646646,0.0006302908202153889
645,1456704159047531,3.897050820991308e-05,0.0003670622815930747,0.0005561145409635895
646,1456704159069533,3.882309812933455e-05,0.0003412195657883613,0.00046165637597399403
647,1456704159084539,8.084906485434722e-05,0.00030311754981810006,0.0003704250115871571
648,1456704159107757,0.00017797771812089625,0.00026293153865819676,0.0002991371698037622
649,1456704159129751,0.0003442521660000509,0.0002386176604603593,0.00025392146866840915
650,1456704159144705,0.0005829170587772938,0.0002493379758470831,0.00023136540589493602
651,1456704159167728,0.000876451965178947,0.0003080218878170794,0.00022386763894068884
652,1456704159189773,0.0011834301584815238,0.0004157614987999354,0.00022631224953536738
653,1456704159204802,0.0014451014807902514,0.0005601055102836266,0.00024011748004939832
654,1456704159228075,0.0016010317842425556,0.0007177582262019078,0.0002723273039718058
655,1456704159249579,0.0016089755846418303,0.0008602917721249075,0.000330590504859592
656,1456704159272589,0.001461013136094199,0.0009605779520595122,0.0004171828367403312
657,1456704159287589,0.0011882253373254011,0.0009983885289744547,0.0005251736773210622
658,1456704159309870,0.0008510770108989423,0.0009647437539904536,0.0006381693204736293
659,1456704159324875,0.0005198968141573357,0.0008645063655530245,0.0007335399516534619
660,1456704159347888,0.00025447878752316337,0.0007158973824120447,0.0007883353201039457
661,1456704159369889,9.083794049952095e-05,0.0005459555592010538,0.0007865703996605282
662,1456704159385123,3.806410704579967e-05,0.0003829701278172817,0.000725711370872144
663,1456704159407892,8.31474674184522e-05,0.00024897026619631336,0.0006195462611838889
664,1456704159429716,0.00019940736127323653,0.00015563712655844108,0.0004952465348100896
665,1456704159444189,0.00035480251020134865,0.00010512326532206028,0.00038477972032943127
666,1456704159467233,0.0005184604391968298,9.442269181140195e-05,0.0003139005849966504
667,1456704159489197,0.0006655307958473428,0.00012005140393257443,0.00029360244279393814
668,1456704159504192,0.0007806828609162845,0.0001800816773342617,0.0003177632751156205
669,1456704159527738,0.0008594440174837611,0.0002726397544778766,0.0003675425729377597
670,1456704159551248,0.0009060345681699005,0.0003923155541073158,0.00041996734397072434
671,1456704159564211,0.0009278785046708509,0.0005271339919144328,0.00045662768663368164
672,1456704159587457,0.000929470196192052,0.0006583463787593064,0.00046885558317540354
673,1456704159609410,0.0009092191711998236,0.0007637809230515148,0.00045782649252776504
674,1456704159626249,0.000861173495832483,0.0008236732035857094,0.0004306880674749377
675,1456704159647448,0.000780403402711369,0.0008265799509867041,0.000395567218612319
676,1456704159677621,0.000668496176373925,0.0007727591013055396,0.0003581347923964456
677,1456704159686587,0.0005354839221592836,0.000673414867437966,0.0003207401656032773
678,1456704159707691,0.0003966358552787997,0.0005459851604185307,0.0002834017407847781
679,1456704159729632,0.0002657107688743479,0.00040741798714257296,0.0002452761681789291
680,1456704159746139,0.0001485694460170454,0.0002684562525122081,0.00020566388956533152
681,1456704159767383,4.0950474713007936e-05,0.00013172426544874645,0.00016443422573687364
