,timestamp,x,y,z
0,1456704146116973,0.174027817187201,0.06667058471239228,0.004427378976196162
1,1456704146138479,0.3259061349420686,0.16858810733496213,0.10706924888699283
2,1456704146162481,0.45325106600593623,0.2528857450848527,0.20059894008761794
3,1456704146177482,0.5440374242115942,0.30512882503299077,0.27774842681760037
4,1456704146198488,0.5990228301770454,0.31988665457295956,0.3349224484615225
5,1456704146222999,0.6297219962434706,0.3024880055943021,0.3715196557218499
6,1456704146268507,0.6527601914292832,0.26781282985062443,0.38871388184846567
7,1456704146277508,0.6844043207662572,0.2359098352152372,0.38875727533895105
8,1456704146285508,0.7369539154353084,0.22542883559864374,0.37504252086528217
9,1456704146300511,0.8156270066849273,0.2473247228774413,0.3525646209019686
10,1456704146321224,0.9144903347074812,0.3017124337887217,0.32815831476791
11,1456704146342727,1.0133844869721362,0.3793453608199182,0.3098993740170099
12,1456704146387010,1.080455993836645,0.4665676464318047,0.30542892129087046
13,1456704146387724,1.0826129227823715,0.5505428026181506,0.31951470317801384
14,1456704146402044,1.0003186800040325,0.6218382540683343,0.35162520323684604
15,1456704146418016,0.8392621334657518,0.6739323937451925,0.3946758179705522
16,1456704146440527,0.6327709843485181,0.7017052363864182,0.4362332266915619
17,1456704146461534,0.43338270559793285,0.7013817713154892,0.46268016000638856
18,1456704146477544,0.2965934394757815,0.6725293114458714,0.46511713477998395
19,1456704146508538,0.26297342358816583,0.6202475081344736,0.4443739278552968
20,1456704146522353,0.3454967484386116,0.5549962552257764,0.4126699347984072
21,1456704146537556,0.5265142049121234,0.4893657924544622,0.3909428804832605
22,1456704146560559,0.7646846831643234,0.4336491772588705,0.40236891831380606
23,1456704146582559,1.0086686457836638,0.3931697704560334,0.46360314986597173
24,1456704146605561,1.2127242917947494,0.36954430445705405,0.5764839899511792
25,1456704146621598,1.3493168094370673,0.36576486425898364,0.7242591937495778
26,1456704146641864,1.414651589596273,0.3917479165936437,0.8757138389583123
27,1456704146664867,1.4249084376008374,0.4649274781335657,0.9966539499920406
28,1456704146680865,1.4048836754163114,0.6023113074257428,1.063465143146293
29,1456704146701875,1.3754584106032492,0.8063324574063852,1.071826360143967
30,1456704146725402,1.3478259960161894,1.0529982973521943,1.036238219998198
31,1456704146741165,1.3279987043201842,1.2919809951174288,0.9808094473058616
32,1456704146770094,1.3265201665611963,1.462131727583477,0.9261003018357399
33,1456704146787124,1.3621545704326563,1.5158279198020683,0.8788834767499333
34,1456704146800893,1.4520441519818896,1.4388458783132783,0.8305087667633182
35,1456704146822357,1.5935179889519986,1.254805872523802,0.7653223571502644
36,1456704146845318,1.752632002486338,1.013446690054717,0.6749095208343571
37,1456704146860318,1.8715242850933551,0.7717919037410076,0.5700860233104595
38,1456704146882454,1.8937850956571776,0.5788833691123393,0.48378420945255046
39,1456704146905454,1.7951606253633485,0.4687497787650501,0.4636174395117263
40,1456704146921272,1.603406096862409,0.4596982226705386,0.5581919252746335
41,1456704146942526,1.3963912842687776,0.555773765803834,0.8025501122465201
42,1456704146973311,1.2775496659634547,0.7475680632488774,1.2062125649197022
43,1456704146981311,1.3369802164352829,1.0117186406234517,1.7448527720910412
44,1456704147004448,1.6118693256483005,1.3102390102863426,2.356195875211605
45,1456704147025263,2.0620164399153604,1.5924017999422941,2.9434072818600185
46,1456704147041427,2.574688713118034,1.8029339318052893,3.3916089332716126
47,1456704147063163,3.0032095418256706,1.8992386103860537,3.5989621193324717
48,1456704147086506,3.2253371911225437,1.8754598875234783,3.5137502146240283
49,1456704147101164,3.193525065272436,1.7830894836056992,3.162785366516156
50,1456704147123179,2.95400295864577,1.7320468164832405,2.659588833024783
51,1456704147145191,2.6306218805220984,1.8603762508769375,2.187263586084209
52,1456704147161189,2.383967385897563,2.276263586845326,1.9550680741695186
53,1456704147190214,2.3589612921990986,2.9946862446155746,2.132958042534986
54,1456704147205192,2.6335513635126477,3.9013306419491047,2.7799887354245727
55,1456704147221197,3.183570539210841,4.770946142958255,3.7960666982523903
56,1456704147243203,3.879837396463703,5.344438586733302,4.928520081341243
57,1456704147265205,4.525187151261647,5.43621546971386,5.845144490880186
58,1456704147281206,4.920745093594462,5.01924947235422,6.250433610488045
59,1456704147305207,4.93356145479288,4.24023090762037,5.994193564481177
60,1456704147324224,4.536837395887814,3.3541883113970137,5.1224214862674495
61,1456704147341408,3.8108158506326797,2.614222205813101,3.8501808573592693
62,1456704147363236,2.9110724754134867,2.1742755793269035,2.475544643147399
63,1456704147386414,2.0190081218503124,2.0474932304316273,1.2779248011111168
64,1456704147408238,1.2907679549306632,2.1271775974410225,0.4419886873586858
65,1456704147423247,0.8206517783187461,2.248974390500344,0.027763139373867318
66,1456704147445264,0.6291676832706982,2.2630097443686235,-0.0151105629737148
67,1456704147467265,0.6739290580606166,2.0881405872672714,0.1949280466453164
68,1456704147484266,0.8730066577702074,1.7310863430824908,0.521445053479831
69,1456704147505271,1.1306681619284573,1.268617910281672,0.8505189793849596
70,1456704147528973,1.3597919650886354,0.8064519855402889,1.1114044185238334
71,1456704147542943,1.4979056501600518,0.436192508405372,1.2761743241542993
72,1456704147565677,1.5153691146276518,0.20785763447997768,1.345622262902748
73,1456704147588680,1.4168131025483213,0.12439345098701543,1.3330747447163827
74,1456704147603681,1.2382918924135708,0.15371359944194993,1.2556969694730924
75,1456704147626189,1.0400895222751836,0.2482508204280626,1.1353952789932995
76,1456704147648697,0.8924475215262787,0.3625281124427109,1.0032910552551448
77,1456704147663699,0.8544568865784372,0.46370808173976275,0.8991141120576253
78,1456704147685700,0.9532361129782909,0.5350473083039798,0.861862752028114
79,1456704147708701,1.1732809567124045,0.5748191353916405,0.9157197959342096
80,1456704147724215,1.4607431668170723,0.5929469653562314,1.058640497668662
81,1456704147752723,1.7394587241748918,0.606042423044345,1.258953117529346
82,1456704147768724,1.9322457008779754,0.6311191729352439,1.4614391778837055
83,1456704147783724,1.9829177036325278,0.6795006083514936,1.6014760623155833
84,1456704147805725,1.8752913266352615,0.7535596797475081,1.6239011942023258
85,1456704147830931,1.6424769578200602,0.8480472473978676,1.5017089462199524
86,1456704147844136,1.3591461143139874,0.9550094349729447,1.2487768681959712
87,1456704147866145,1.116642453738981,1.0685728105571786,0.921520770399667
88,1456704147889134,0.9909378986169968,1.1855814700757084,0.6073969227135851
89,1456704147904135,1.0174757006639996,1.3011990488898588,0.4025076565216783
90,1456704147926176,1.1823531088211263,1.4030164530639515,0.3841698254260199
91,1456704147949192,1.4310545766982647,1.4690879503482477,0.5860742593691055
92,1456704147970495,1.6896984833885011,1.4729914458676177,0.9834992534218946
93,1456704147986193,1.8906967583775942,1.3943808861228626,1.4939772322287863
94,1456704148009195,1.9933439138738112,1.2299315648305775,1.9953156600851107
95,1456704148030213,1.9909316821056864,0.9995286042311192,2.3586026934311657
96,1456704148046221,1.9024175566399022,0.7458572339065848,2.4888019122794356
97,1456704148069223,1.7572034401830472,0.5289917449277045,2.3604942426880204
98,1456704148090224,1.5876414816855176,0.41790048755883286,2.034636137105574
99,1456704148106225,1.4368000250464212,0.4786664821343214,1.6472372101248347
100,1456704148129252,1.371717785587735,0.7582744914821496,1.3709738609185136
101,1456704148150260,1.4806938010740498,1.2650917515074318,1.3602151499886215
102,1456704148166261,1.8411592386021172,1.9517601886348408,1.6952812880722232
103,1456704148188262,2.4686665472773566,2.7107412708163827,2.343961824538655
104,1456704148209263,3.278240558812508,3.3933748928098875,3.1579248910119997
105,1456704148225814,4.089883853989748,3.8556558176174303,3.9147838693158388
106,1456704148249375,4.688557120211058,4.01823043648858,4.399051018997227
107,1456704148270390,4.916460503103046,3.9125453405037045,4.49183563488433
108,1456704148286388,4.749906626238356,3.68176159965015,4.226294128949691
109,1456704148309392,4.314381123393509,3.522299354709599,3.777789763982482
110,1456704148330028,3.8259427264391244,3.5859979257582775,3.3896594024164295
111,1456704148345544,3.492205280936415,3.8938596489777857,3.266977599003011
112,1456704148368500,3.4264885835173895,4.314565294455365,3.4855096989894365
113,1456704148389710,3.6137263639297696,4.626510919568209,3.9572208699247087
114,1456704148405501,3.9353436331947935,4.631736234008857,4.469237965964482
115,1456704148429716,4.232769943670882,4.257614514774459,4.77783699212521
116,1456704148452430,4.374738161089411,3.5894000412515163,4.710808906497397
117,1456704148466431,4.298086427962743,2.8192387140756368,4.229301443741292
118,1456704148489432,4.013131080880044,2.146804871653996,3.4262603259944475
119,1456704148512435,3.584627916768481,1.690520524558791,2.474487582063004
120,1456704148525949,3.1028102131228197,1.4538037063769378,1.5586866374943393
121,1456704148548459,2.6530945137313653,1.353109373612227,0.8222713837800046
122,1456704148571458,2.2913906707634024,1.2803363299397745,0.3414127084676282
123,1456704148585459,2.033129540433327,1.1600407067165586,0.12328250582338275
124,1456704148608492,1.859790693730419,0.9741868401035428,0.12018668505388133
125,1456704148631978,1.7375047740979328,0.751733121811683,0.25200675619373497
126,1456704148645484,1.6358076238429082,0.5396304810290593,0.430663932685666
127,1456704148668486,1.536481558485802,0.3757225864999079,0.581446166131746
128,1456704148691487,1.4315409278619975,0.27553887779650577,0.6578452879810177
129,1456704148705488,1.3176505380388317,0.23367757133878578,0.6481427867018512
130,1456704148729207,1.193983538474068,0.23350624777720527,0.5725656069799284
131,1456704148751464,1.0636795179140452,0.2577157730950809,0.47103912316597896
132,1456704148766429,0.9344863019991333,0.2947210846907681,0.38496646713889293
133,1456704148788461,0.816266783738503,0.33933567906117545,0.34013146777688624
134,1456704148812432,0.7173376578870614,0.38898828057977014,0.3380983215668108
135,1456704148826373,0.6422422412879922,0.43853451838419244,0.35940169298278535
136,1456704148848638,0.5911730175833892,0.477267474421372,0.3759351808574726
137,1456704148871639,0.5602256705844084,0.4906578990992239,0.36571491207125933
138,1456704148885639,0.5428221795827287,0.4665666022696974,0.3227783278317031
139,1456704148908640,0.5329352702716899,0.4025252936353596,0.25834326065835755
140,1456704148932149,0.5288540920752891,0.30963994966940395,0.19428397118640187
141,1456704148953156,0.5346631227849318,0.21071203262707852,0.15345564593320726
142,1456704148969157,0.5577607855738395,0.13343599278488297,0.15169465030878088
143,1456704148992350,0.6035618069405697,0.10152626460318935,0.19399079793612634
144,1456704149013161,0.670348433980574,0.1267808786963268,0.27444973972426556
145,1456704149028963,0.7470737377481046,0.2044222969377488,0.37832944671096935
146,1456704149051270,0.8154484418979244,0.3133901696029821,0.4852564327291819
147,1456704149073271,0.8556511491716281,0.42237884177212826,0.5741409587601115
148,1456704149088454,0.8533720037722339,0.5006009658566019,0.6299486531342502
149,1456704149112273,0.805544703332195,0.5296139153404392,0.6500635760702932
150,1456704149133802,0.7228452341565609,0.5107833003585116,0.6461829742736143
151,1456704149148803,0.6277979308049052,0.464199071988637,0.6391410813527376
152,1456704149170804,0.5480378417862553,0.41907815997350467,0.6480329194009232
153,1456704149192804,0.5059596944869392,0.40011227499322294,0.6784710966515171
154,1456704149208806,0.5086488743808635,0.41593983583223626,0.7158819659015144
155,1456704149230820,0.5434181566883711,0.4544431337525536,0.7282858228765251
156,1456704149252330,0.5822381054197192,0.4865731804564425,0.6792095533839777
157,1456704149268332,0.5936319867195636,0.4777215460276437,0.5464181592589135
158,1456704149290333,0.5565003722455746,0.4036858084884308,0.33883879458660743
159,1456704149312334,0.4695878352273388,0.26643421668008377,0.10444761855859844
160,1456704149328990,0.35322292274510575,0.10359085184280017,-0.07489243590981665
161,1456704149350546,0.2443597819102347,-0.013733828673696252,-0.10191375968420385
162,1456704149373547,0.18844452674995923,0.002836599203166706,0.10727472994936851
163,1456704149388548,0.23062252302883976,0.23063175192869523,0.5905479909144807
164,1456704149410551,0.40628541219050196,0.7027559444435026,1.3133812638783222
165,1456704149433562,0.7303263286612831,1.3825659956359393,2.161019209345603
166,1456704149448569,1.1869400104943286,2.160444947523048,2.959255509981442
167,1456704149470570,1.7252862166420968,2.882028132464968,3.524990182269642
168,1456704149493571,2.26702115034636,3.4025129971773342,3.733126629348502
169,1456704149508572,2.726816894232167,3.644112739699919,3.5727559324034646
170,1456704149531045,3.03816453124054,3.625934015044795,3.163633480504436
171,1456704149553510,3.1715551717808332,3.447667854559252,2.7190863707645136
172,1456704149568511,3.1374388292213418,3.2356600509591837,2.46653333255833
173,1456704149592513,2.977534152709993,3.0824648050932453,2.557371330994483
174,1456704149613514,2.7526997520463103,3.0117919975588388,3.0037191590844525
175,1456704149628929,2.530933512016387,2.98220391799201,3.66890175502496
176,1456704149650417,2.3743721908838813,2.9212774569265094,4.317072387102739
177,1456704149673419,2.3247928219027316,2.76908180521596,4.703422541499828
178,1456704149688419,2.3899468499127963,2.5083085336685005,4.66851763478342
179,1456704149712421,2.5359445355305597,2.167865504377436,4.196498970987086
180,1456704149733429,2.693061522258003,1.80294821010676,3.412255295260443
181,1456704149748434,2.778732196951011,1.4669513769649376,2.522365083019204
182,1456704149770435,2.730066391579542,1.1909951144003972,1.73188426971599
183,1456704149793436,2.528727855479087,0.9782289829766503,1.1763605845172593
184,1456704149808437,2.204747932409728,0.8112433332754669,0.8933349594286409
185,1456704149838865,1.820015935898261,0.6666309927444541,0.8342722054043024
186,1456704149853866,1.4433836949931442,0.5298863699088733,0.9020466556344737
187,1456704149868866,1.129658717366967,0.40441438164480326,0.995165654147354
188,1456704149890868,0.9083611628175913,0.31071729072958054,1.0431017908325302
189,1456704149913870,0.7827168622644074,0.2761643135014768,1.0227105411892288
190,1456704149934959,0.7366684912713527,0.32015469442027666,0.9529706213264679
191,1456704149950954,0.7453848589607868,0.4414593037065397,0.8738667385872004
192,1456704149974956,0.7836916252432398,0.613530386451011,0.8214187694092532
193,1456704149995257,0.8295960201699409,0.7904242474565821,0.8103814348119621
194,1456704150010956,0.8646758304958116,0.9215394064852165,0.829880362128272
195,1456704150033966,0.8746916151375894,0.9691559986200231,0.8506090720865246
196,1456704150055305,0.851423865283907,0.9212520178484453,0.8388238897742082
197,1456704150070975,0.7943025474682537,0.7945020182813303,0.7714707296781242
198,1456704150093976,0.7107249378352752,0.6270131237504224,0.6467962922072433
199,1456704150114978,0.6153200485194286,0.46435117593096,0.4863242232445245
200,1456704150131021,0.5280850917871147,0.3443830667092925,0.3277090577824009
201,1456704150154249,0.4702143154206961,0.2864329750589285,0.21184139226135354
202,1456704150175247,0.45743785387272073,0.2883416361305704,0.16929068497605784
203,1456704150191250,0.49353573126535855,0.33166175879864385,0.2106410339978114
204,1456704150214242,0.5679243401616852,0.391818961006442,0.32375363455030537
205,1456704150234401,0.6590063762748692,0.4482925182082316,0.47894798038209935
206,1456704150251409,0.7415402524694541,0.4905062058839464,0.6403664436156701
207,1456704150274408,0.7948445902221577,0.5177786626827999,0.7789471600919765
208,1456704150295409,0.8094429647090217,0.5349975570638285,0.8811797896003277
209,1456704150311410,0.7904029953099755,0.5475806479669776,0.9496448489607052
210,1456704150334138,0.7552647621391495,0.5583759642431821,0.9955976519592923
211,1456704150357147,0.7253690666846867,0.5665206663997762,1.0278984355167013
212,1456704150371148,0.7134074409068911,0.5668180555910348,1.0441534037620677
213,1456704150394149,0.7145379174370219,0.549453419612962,1.0288092417537194
214,1456704150417150,0.7082967093981422,0.5022083203746641,0.960246734516368
215,1456704150431162,0.6723442472691498,0.41758503467428904,0.8255779062417934
216,1456704150453456,0.601428099654364,0.3040116117230632,0.6382881900050652
217,1456704150476456,0.5214544784252115,0.195478856821151,0.45085633489825283
218,1456704150491457,0.49041702683216853,0.1513966079037489,0.3535821651315494
219,1456704150520044,0.5826917904812599,0.24106546099694395,0.45359932908158374
220,1456704150536534,0.8590853627554798,0.5148495870595726,0.8351567573877832
221,1456704150550535,1.3317588996479677,0.9734239638825938,1.512807413218194
222,1456704150574536,1.9391625453549308,1.5518981171123813,2.398974622462579
223,1456704150596538,2.5475958813297166,2.1324799209006704,3.309045193834193
224,1456704150610538,2.9891920270799637,2.5867259753360408,4.014627380025358
225,1456704150634049,3.1297941697201384,2.831445186282244,4.330976227556067
226,1456704150656556,2.9391755216893722,2.8708618204910374,4.200775729193747
227,1456704150671556,2.5240787560732647,2.7999735050836176,3.730894307577293
228,1456704150693558,2.0968156487277314,2.760924169682851,3.1587734477997453
229,1456704150716560,1.8874207983713047,2.8689696772871875,2.759664613858633
230,1456704150738578,2.042071996954762,3.145239915975745,2.7348202549710225
231,1456704150753579,2.559343377750513,3.4958661410629044,3.1299241279635783
232,1456704150776580,3.294478922662272,3.7545063086178447,3.8192653316618057
233,1456704150798581,4.025469705770118,3.7682904044227037,4.560641133008835
234,1456704150813583,4.54366246630778,3.4792478536746763,5.093496898230353
235,1456704150836660,4.723143154185213,2.954590614912496,5.2350919419004445
236,1456704150857697,4.543249802609035,2.3507216705493352,4.934394840707592
237,1456704150873728,4.071375406119487,1.8359510403533947,4.266863547810982
238,1456704150896663,3.429756635880427,1.5175683219477354,3.3833858934344057
239,1456704150917663,2.760534895025784,1.409028422174291,2.447143392075392
240,1456704150933705,2.1895902889913312,1.4449526359866771,1.5897918244509337
241,1456704150956676,1.792124883995787,1.5262556915301018,0.8969040719923795
242,1456704150977678,1.5735777528283974,1.5677766373414792,0.41246126849703424
243,1456704150993878,1.4784786469613596,1.5270607629198234,0.14810178191857645
244,1456704151016898,1.4246426569055595,1.4078091156238717,0.09011704173680775
245,1456704151038890,1.3447635282303627,1.2445806862447635,0.20373113492469822
246,1456704151054103,1.214489107366859,1.0802428744111647,0.43616770413941647
247,1456704151077105,1.0557507439147298,0.9459548921434644,0.7206198862997323
248,1456704151097912,0.9177851233049454,0.8501102113202673,0.9840855692231004
249,1456704151113894,0.8476148923339579,0.779196447688833,1.1610119506916283
250,1456704151136194,0.8640490047510373,0.7088523736915524,1.2103536363816052
251,1456704151158319,0.9461534768429519,0.6188203823078474,1.1285770614566686
252,1456704151174316,1.0410350230519227,0.5041759343487683,0.9503881159109185
253,1456704151195312,1.0877669603164266,0.37792639694506963,0.7347795005458978
254,1456704151218199,1.045927580218127,0.26469115755648454,0.5425386273102125
255,1456704151234402,0.91351533668542,0.18921598956327193,0.4158573643484429
256,1456704151256374,0.7248742344401986,0.16533705719433803,0.3681572597601498
257,1456704151278385,0.5317637527889526,0.19016718482530628,0.38581241802504534
258,1456704151293385,0.38001283970929073,0.24551074949262902,0.43818279828127515
259,1456704151315402,0.29399050078387373,0.30535603571761266,0.4906401552862705
260,1456704151338386,0.27381333787434076,0.34594705552272087,0.5162517245010767
261,1456704151353324,0.3022678074024164,0.3540860999985906,0.5034353979843331
262,1456704151375380,0.35474455580067127,0.33035952240493166,0.4580080839540619
263,1456704151398328,0.40706339739205877,0.28654245265737144,0.39915708770615566
264,1456704151414328,0.44005683862620515,0.23916132987174327,0.350803363448588
265,1456704151436347,0.4423065967833566,0.20264712600957324,0.33183534186468217
266,1456704151459181,0.4121663296974847,0.18512200907606044,0.34925116541933476
267,1456704151473379,0.35866238776914644,0.18802520070201556,0.39691822268722876
268,1456704151495377,0.2999647145501576,0.20862967975076732,0.4601151155797519
269,1456704151518377,0.2586212667223447,0.24327169245685676,0.5233609882014282
270,1456704151534349,0.25434301643831386,0.2893051667739962,0.5775283123325358
271,1456704151555711,0.2967979531960403,0.344965639285146,0.6227106291508995
272,1456704151578712,0.38135921588901767,0.4076166948464847,0.6655534047722611
273,1456704151593712,0.489531194662231,0.47154139651113686,0.7126655831085968
274,1456704151615988,0.5937021938130893,0.5264841745583951,0.7638881111030916
275,1456704151639657,0.6644676247602175,0.5580594805469881,0.8093803825935082
276,1456704151653658,0.6786614679049534,0.5510091023525469,0.8325069198203056
277,1456704151675888,0.6266074007880005,0.4954635532990351,0.8176656925136162
278,1456704151698661,0.5170723767409833,0.39465162823108124,0.7602487401106699
279,1456704151713663,0.378259359502422,0.27086177173168036,0.6753407795272297
280,1456704151735546,0.2536642700556221,0.1660359519687485,0.6016104529288018
281,1456704151749596,0.1928896406943707,0.13457992515796224,0.5967497534317058
282,1456704151771842,0.239168793130015,0.22858169349987467,0.7223002520611033
283,1456704151795557,0.41681883858338115,0.47893763160445524,1.0202298786745865
284,1456704151809564,0.722216098521841,0.8786032364711415,1.4893677718433933
285,1456704151832069,1.1205465724920671,1.3749651177596018,2.0725840090664005
286,1456704151854582,1.5486247692571498,1.8766780623445651,2.663297978118145
287,1456704151869620,1.9240498492024696,2.2765966364922887,3.1336286211076287
288,1456704151891586,2.163069595745307,2.4871798877364673,3.377942344651526
289,1456704151915844,2.2087874481272345,2.478438252932878,3.356845183275804
290,1456704151929806,2.0630264556324187,2.3024294723208425,3.1224815924386258
291,1456704151951747,1.8042435482224966,2.086743652758803,2.8107939517394196
292,1456704151974534,1.5733911794838735,1.9890445568746165,2.5988583906762517
293,1456704151989606,1.5251777891347607,2.1261451485705156,2.639593686975135
294,1456704152011751,1.7633229325392494,2.5113369642069556,2.997018281070539
295,1456704152034973,2.2898018572925865,3.0356486195380947,3.609219343228863
296,1456704152050295,2.9940249627186684,3.5081634247443496,4.299248498249214
297,1456704152072268,3.691235032710558,3.7391087461793426,4.835241355719958
298,1456704152095284,4.194882128801981,3.62492492092479,5.017240866200213
299,1456704152110355,4.386321985469216,3.191624814141615,4.752985755535199
300,1456704152132067,4.245331096199708,2.575200588162665,4.089097056744602
301,1456704152154875,3.8325522441860773,1.9530783448188647,3.1863235973333786
302,1456704152169627,3.247316222977618,1.466059992955054,2.254409256214434
303,1456704152191802,2.591750534753916,1.1701808304399315,1.478592182856752
304,1456704152214802,1.9535480997071852,1.0358083495460557,0.9684376377269303
305,1456704152229882,1.400318328193556,0.9843729381170285,0.7437266424624916
306,1456704152252351,0.9757811938680071,0.9372088501895358,0.7524726588489592
307,1456704152275179,0.6964559234004851,0.8512070516236061,0.9044809843427032
308,1456704152290181,0.5530018078457711,0.7281422769909062,1.104126150283759
309,1456704152312347,0.5182305196886087,0.600174146065407,1.2734181900165746
310,1456704152334928,0.5586899449614798,0.5046890287366447,1.3638149918803588
311,1456704152349438,0.6441869810793792,0.4630805940416584,1.3587461893501889
312,1456704152371442,0.7513291809225702,0.4721853137546573,1.2690170926969304
313,1456704152394649,0.8613994028735031,0.5091523010175462,1.1229694444957743
314,1456704152409699,0.9565443494415945,0.5446482938155567,0.9541647627260457
315,1456704152432330,1.0187018747802064,0.5569459569559462,0.790523498448148
316,1456704152455165,1.0326273046699506,0.5403689573863157,0.6484797674658261
317,1456704152470166,0.9905736241587025,0.5048215635304295,0.5333076184555101
318,1456704152492315,0.8950296402024102,0.4675083339192021,0.44366007387432205
319,1456704152515168,0.7579757041545105,0.44181531342690034,0.37659426990788936
320,1456704152529963,0.5977727675065623,0.4297016028324447,0.3301251697674614
321,1456704152551836,0.4355299341703559,0.4217763770082591,0.3028697806668038
322,1456704152575198,0.29180764797780356,0.4046060780611062,0.29249249320050735
323,1456704152590134,0.1836685992682557,0.3705719828182431,0.29503984483739554
324,1456704152613843,0.12217909305251856,0.32438295349644564,0.3061593731156715
325,1456704152635146,0.11081461625112554,0.28252587112880173,0.32358997639584863
326,1456704152650140,0.14525406289952877,0.26580936103888675,0.348976561013411
327,1456704152672141,0.21483464620295872,0.2886678824183116,0.3869855693328623
328,1456704152695143,0.30559396309722503,0.3506326000586914,0.4415949668136139
329,1456704152710144,0.4043085561115009,0.4345809393245686,0.5121619394891087
330,1456704152732163,0.5022688925380199,0.5131183561913708,0.5926752355471379
331,1456704152754973,0.5969120012117989,0.560076484009125,0.675071799347074
332,1456704152769965,0.6897076668662082,0.5610925522533544,0.7537337635078748
333,1456704152792254,0.7808194987008775,0.517696797436716,0.8269493449991804
334,1456704152815233,0.8638801319311498,0.4432541809593314,0.8935553162204166
335,1456704152837901,0.9246378509593312,0.3540145524545897,0.947093244071634
336,1456704152851574,0.9444740705806122,0.2612463445282594,0.9724681856731012
337,1456704152874570,0.9070923944386499,0.16939467049823675,0.9495094658420236
338,1456704152897720,0.8066927454023766,0.08141437002350316,0.8643143532758454
339,1456704152912571,0.6568840891576129,0.008250708710438813,0.724770130581671
340,1456704152935298,0.49826704910281416,-0.023242939292308504,0.573296144926788
341,1456704152957591,0.39949463967959714,0.03004819495389939,0.4886999377068742
342,1456704152971597,0.4456706392909681,0.2166615882297086,0.5707726818556997
343,1456704152994598,0.7120961886292132,0.5694556325742048,0.9066617982305272
344,1456704153017937,1.22925730372553,1.0806776295389249,1.5269257892379309
345,1456704153032388,1.9523479043985912,1.6844871707598597,2.3688659811503157
346,1456704153054704,2.7518888952134657,2.2599196205064884,3.2696987976757015
347,1456704153078005,3.4384305404321043,2.6621681729680122,4.005362635048596
348,1456704153091999,3.8216624862409048,2.776720634063868,4.369629225905573
349,1456704153115062,3.784909733116468,2.5748715936797657,4.261871926035471
350,1456704153137798,3.3414043932652024,2.1416864310200627,3.739498118365317
351,1456704153152090,2.6425966593841053,1.6566768386703523,3.0060212929363126
352,1456704153174800,1.9315969878403978,1.329983418632359,2.339579260860982
353,1456704153198127,1.4605957352664636,1.319442888451295,1.9946673932424108
354,1456704153212097,1.4042698863548195,1.663749041022049,2.1155466743608256
355,1456704153234808,1.800127125495584,2.2608426690391745,2.6883781190911162
356,1456704153257831,2.5367332895153423,2.903270193685151,3.5443263258036373
357,1456704153271826,3.3945341566401064,3.359143307607102,4.412813270004983
358,1456704153303830,4.123975229288226,3.465443168879893,5.010221935401536
359,1456704153317833,4.528909816004041,3.190986056507732,5.1354777997958925
360,1456704153332242,4.520554242939238,2.6390388560469664,4.737454795190084
361,1456704153354996,4.124500342369411,1.9909590140946942,3.926876871170994
362,1456704153377997,3.4505524595645407,1.423592114004468,2.927209269011678
363,1456704153391988,2.650130968894224,1.0434636602308776,1.9867087326710116
364,1456704153414926,1.8785083182940576,0.8646465220146241,1.292276499306566
365,1456704153437918,1.2642122460131373,0.8292457562163219,0.9215046426658671
366,1456704153451584,0.8842467553700326,0.8499349918421594,0.8445821962383706
367,1456704153474948,0.7499543546577557,0.8511662842201323,0.9615799523658238
368,1456704153497580,0.810927879854704,0.7939328888345651,1.150216771775724
369,1456704153512580,0.9781987191569265,0.6797129175430128,1.3050165016067088
370,1456704153535091,1.158501677169959,0.5380726910947881,1.360126823426767
371,1456704153557432,1.2855773673104067,0.407473559394638,1.296194178861298
372,1456704153579427,1.3357101729187624,0.3187702292847082,1.1346921574983357
373,1456704153594763,1.3228104945705066,0.2865498215792543,0.9234526004709065
374,1456704153617730,1.2788591001781195,0.3082222946011793,0.7176382779882308
375,1456704153632222,1.2317246613811743,0.3678086466205441,0.5615482811391596
376,1456704153654846,1.190993411894898,0.441498276530372,0.47669053774554127
377,1456704153677554,1.1464002021965134,0.5038431076662296,0.45901522753190444
378,1456704153691735,1.077422703946102,0.534450180262422,0.4843329760209028
379,1456704153714660,0.9683907660144749,0.5239234046890165,0.5185526615361852
380,1456704153737656,0.8211225540388053,0.4763181986524822,0.5293788458628134
381,1456704153751666,0.6578870708665352,0.40633381162803883,0.49680120508306364
382,1456704153774668,0.5126226432911686,0.33274919764604843,0.4197131109253226
383,1456704153797948,0.41553763244916825,0.27198521405889664,0.3162408232331908
384,1456704153811896,0.38024776437145824,0.23486148478739827,0.2172817557266509
385,1456704153835111,0.4003128207048986,0.2266875765403365,0.15573620956662446
386,1456704153858226,0.4554878893243632,0.24857499723574888,0.15577100044139988
387,1456704153872105,0.5221463334079292,0.29794409203603406,0.22596709172180496
388,1456704153895300,0.5810197946763084,0.3680008721464985,0.35818249581393147
389,1456704153918301,0.6191416714488059,0.44753725981110315,0.5317415790792881
390,1456704153932285,0.6283260833748259,0.5224612014872996,0.7208105949767223
391,1456704153955640,0.6048387998001084,0.5792580504601057,0.9019066464769423
392,1456704153977648,0.5523328787210097,0.6092189201443354,1.0587514798733064
393,1456704153991643,0.4854662231988265,0.6115262155857276,1.183064208696383
394,1456704154014644,0.42923319497871437,0.5933312867951455,1.2718036730252653
395,1456704154037757,0.411071797876261,0.5658922796988869,1.3228582754387013
396,1456704154059766,0.44797413714191553,0.5378778502245798,1.3314485753981824
397,1456704154075063,0.5354438933322084,0.5094793841429935,1.2888949542604298
398,1456704154097767,0.6456741476216605,0.4720338523848317,1.1851010518151561
399,1456704154120051,0.7381271187815015,0.4156607122731719,1.016133704605315
400,1456704154134937,0.7794069559749262,0.34256218172724645,0.7967606974087521
401,1456704154157022,0.7643452264144543,0.2790208209629659,0.5735851431010704
402,1456704154189023,0.7284877834297627,0.2776855971436625,0.429844262872165
403,1456704154195023,0.7439887155494644,0.40467981360126465,0.4726196886125167
404,1456704154217199,0.8960028910148864,0.7126559098205069,0.7996705644932478
405,1456704154240134,1.2446469491136203,1.2088684521743382,1.4541880890828964
406,1456704154254880,1.7867816044488074,1.8333446445065116,2.3858992334688898
407,1456704154276846,2.4375390796257066,2.462768405545847,3.440267684254484
408,1456704154300057,3.047898298235005,2.947886728262288,4.390438292638643
409,1456704154314982,3.460037068644494,3.1757908981187377,5.009155084212001
410,1456704154336609,3.5809384230142114,3.1293520734589277,5.155858120898319
411,1456704154360123,3.436664437473146,2.908147807889254,4.83999255718643
412,1456704154374124,3.1706794115528925,2.69056572245715,4.227780844184886
413,1456704154404126,2.9791635614337233,2.6503266265661547,3.5855188690516666
414,1456704154419127,3.0168914199580974,2.869345938181711,3.18189062881648
415,1456704154434633,3.3246798157438437,3.2923588414839613,3.1888487255794864
416,1456704154457193,3.812302782337537,3.7468831927692103,3.6199656197671293
417,1456704154480145,4.299699478838382,4.01951324736084,4.329094207619651
418,1456704154495190,4.594607869475002,3.9521944552909765,5.067395006803147
419,1456704154516514,4.570599412131961,3.5122917347093767,5.5741886248919315
420,1456704154540255,4.209563668388227,2.803783925773538,5.666326269701419
421,1456704154555281,3.593062264893739,2.0175276710767776,5.294196326655313
422,1456704154577278,2.8572679373144125,1.348751381185582,4.546480992496681
423,1456704154600257,2.141726603912146,0.9227058542260729,3.605514266811523
424,1456704154614260,1.5532670708781413,0.7598632873741008,2.674970909706037
425,1456704154637088,1.1490444933009556,0.7889764385104929,1.912453555142586
426,1456704154668584,0.9344926192466102,0.8938522644804694,1.3931484055360583
427,1456704154674944,0.8724594122664513,0.968145165355644,1.111110342095508
428,1456704154696586,0.9005020196363926,0.9542732438825284,1.0067431743817283
429,1456704154719871,0.9521558603764779,0.8538771297631202,1.0025487213374218
430,1456704154735373,0.9769985283262682,0.7116105304086192,1.032467423683115
431,1456704154757380,0.9539612024978541,0.5850205017411995,1.0572856354690294
432,1456704154779383,0.8934002369696715,0.516400393656832,1.0655617967824187
433,1456704154795384,0.8272668644480257,0.5176453288357467,1.0641202821875826
434,1456704154817384,0.7916684061262952,0.5706602370929825,1.0641370929583955
435,1456704154840467,0.8088597089381427,0.6390833940744668,1.0692378241728613
436,1456704154854802,0.8754869028325455,0.6844202396455786,1.0709273277883886
437,1456704154876476,0.9619601367575149,0.6802828650805544,1.0531449738788814
438,1456704154899472,1.024214665521708,0.6205651695644527,1.00253697923738
439,1456704154914473,1.0236669733529582,0.519995369024477,0.917603365049892
440,1456704154937268,0.9462004904219881,0.4078945375587014,0.8112409975628356
441,1456704154960093,0.8102760365667826,0.31762684963013094,0.706162958381731
442,1456704154974813,0.659373971853338,0.27518488116209017,0.6267171154370108
443,1456704154996813,0.5423805888730635,0.29069790060012973,0.591109675694287
444,1456704155020031,0.49192538046241097,0.3559404068345974,0.6064684940380669
445,1456704155035222,0.5111940115689807,0.4487807024480452,0.6677761003363561
446,1456704155056774,0.5748123082448504,0.5426006532574262,0.7606004408819349
447,1456704155079770,0.6423538107583645,0.6165832916317648,0.8663793835665717
448,1456704155094998,0.6773754494920163,0.6626102145216116,0.9682494055485291
449,1456704155117002,0.6630427939152493,0.6862355624585499,1.0553114368155265
450,1456704155140100,0.607798851311513,0.7017122562346928,1.1236227784213004
451,1456704155154799,0.5394026443000735,0.7232219914811276,1.1733122589680975
452,1456704155177134,0.49061716164655733,0.7557563042131286,1.2031517302070114
453,1456704155200134,0.4831446101955314,0.7895248121246293,1.205836048545842
454,1456704155215018,0.5170687169573273,0.8013292162885522,1.1678799073330697
455,1456704155237114,0.5708500929590936,0.7645582212338101,1.0767238006300097
456,1456704155260163,0.6127515490126757,0.666073149748797,0.9343548202362619
457,1456704155275167,0.6201062083658873,0.5241855655297584,0.7722562536520866
458,1456704155296835,0.599280314425592,0.3988619881055752,0.6586769335623999
459,1456704155319843,0.5968734042885261,0.38496814214867425,0.6888675072406087
460,1456704155342160,0.6928790551279057,0.5836118234059287,0.9543631778741447
461,1456704155357251,0.9718785150744784,1.056349325153456,1.4981704450726254
462,1456704155379160,1.479297469456242,1.7795234803544933,2.274406238273105
463,1456704155403177,2.1814108873752103,2.624011892144152,3.1362101032980627
464,1456704155417179,2.952363530880176,3.380622034079142,3.8679546634441953
465,1456704155440249,3.603397303809944,3.830553664211491,4.256405465122393
466,1456704155462342,3.9489797610778385,3.833055205910268,4.171145500996161
467,1456704155477244,3.8811559541892287,3.3874331477535864,3.6157420771829054
468,1456704155500249,3.4150114390148163,2.6377168968977407,2.7274148137804004
469,1456704155523288,2.6849125968579113,1.8194817800808718,1.7316635426260574
470,1456704155537093,1.8995523356724835,1.1768900418882586,0.8766674464159924
471,1456704155559134,1.2794367059696412,0.885470115440448,0.37146911728912846
472,1456704155583169,0.9969788714802618,1.0042260694083491,0.34064225011148147
473,1456704155597172,1.1304829550560513,1.4648871166379998,0.7982992608486439
474,1456704155620171,1.6405127155953214,2.0970900657499185,1.6420813180974887
475,1456704155642859,2.3778846784520487,2.6835801097310035,2.6712650175145796
476,1456704155657121,3.1277181703267765,3.032195226344969,3.6333899181629756
477,1456704155679862,3.6798538680181268,3.041364891043394,4.293522311674173
478,1456704155703130,3.8990055295773822,2.73165848667686,4.504135096076947
479,1456704155717130,3.7623401613859406,2.2269337592682095,4.246273281771451
480,1456704155739452,3.3480628079366834,1.6935810737003816,3.623698541407788
481,1456704155763469,2.787427639169226,1.2694720243979591,2.81496277544583
482,1456704155776739,2.2106472521025156,1.017753776725463,2.008114876071422
483,1456704155799860,1.7114922093948335,0.9225344919325409,1.3468300624456597
484,1456704155822763,1.3368700522081618,0.9188299897623498,0.9047247089686445
485,1456704155836971,1.0938300259895606,0.9344597781324347,0.6873611175921623
486,1456704155859489,0.9631530220067684,0.9221505567606053,0.651256926004405
487,1456704155882716,0.9122180752604794,0.8707129195154688,0.7286684715537799
488,1456704155896484,0.9050872641406055,0.7966426908100843,0.8502934870289408
489,1456704155919789,0.9107685746538817,0.7257987704689196,0.9610989653509031
490,1456704155942842,0.909773213308879,0.6764176519387565,1.0273841919870135
491,1456704155956804,0.8967450308392847,0.650806618809275,1.0362897449267316
492,1456704155979801,0.8770756812527711,0.6371491327808031,0.9909267236673227
493,1456704156002020,0.8587665140506032,0.6181384110713677,0.9041715394877013
494,1456704156017024,0.8443401419787359,0.5808905631573197,0.7928847698945564
495,1456704156039518,0.8280427257510921,0.5229778620707085,0.6734192737970808
496,1456704156062148,0.7998955738252804,0.4522969397496561,0.5589790327744719
497,1456704156077146,0.752872954230241,0.3822931890734492,0.45882493001328123
498,1456704156100153,0.6874781757488381,0.3260662507668966,0.37846993088622444
499,1456704156122151,0.6111421693576198,0.29202248715308665,0.31988797743983705
500,1456704156136968,0.5343609317208875,0.28182765521749825,0.28167709043818734
501,1456704156159793,0.46686563936936193,0.2903860322341902,0.2598568184140406
502,1456704156181757,0.4153962873677869,0.30745897273470374,0.2495132164614219
503,1456704156196758,0.382833514701761,0.32063508357725995,0.24656482648241926
504,1456704156219991,0.36833293294669955,0.31930243939789743,0.24886192532675905
505,1456704156242205,0.36874584093152907,0.29873968574660736,0.25654888062184317
506,1456704156257206,0.38128754566458023,0.262588959274911,0.2719151246071052
507,1456704156279208,0.40610635031588954,0.22191310252421145,0.2985532805915653
508,1456704156301421,0.4465825894216194,0.19066643571768851,0.3394770632946668
509,1456704156317209,0.5061752995309556,0.17978904286293385,0.39453467150678057
510,1456704156340115,0.5834185559922274,0.19316471544624614,0.4585574958751708
511,1456704156361121,0.6691212928864687,0.22748204162366398,0.5222501855841688
512,1456704156376123,0.7489598040961436,0.27570215154687755,0.5767590175503515
513,1456704156400149,0.8103410610472939,0.3318646798829114,0.6198933008213912
514,1456704156422143,0.8486603883427354,0.39413915734315486,0.6591874123677898
515,1456704156437116,0.8686371956570637,0.4637594452260157,0.7077637277897153
516,1456704156459305,0.8801991608318291,0.5398975653671462,0.7740605680754182
517,1456704156482145,0.8914812797759664,0.6137136331993228,0.8520762686576914
518,1456704156506148,0.9024652514818954,0.6665253309807907,0.9196615404426458
519,1456704156520144,0.9026936744044879,0.6753229337478721,0.9472488362326874
520,1456704156542114,0.875402487318027,0.6243394101763503,0.9123604238401454
521,1456704156566144,0.8077151299197477,0.5172378495758044,0.8121113573631736
522,1456704156579114,0.7032571573313683,0.3835306866045097,0.6686230199281558
523,1456704156602139,0.5912937871596669,0.2753301149646375,0.5271612565623505
524,1456704156626100,0.5261804272922896,0.254633463176237,0.4490716743676037
525,1456704156639844,0.573491024979938,0.3748200789822749,0.5001738391086066
526,1456704156661343,0.7848264154855737,0.6614780887560986,0.7334681564939448
527,1456704156686343,1.1697631989767472,1.097595106517809,1.1668836992727876
528,1456704156699645,1.6774128702547841,1.6181960622663538,1.7629672260726108
529,1456704156721630,2.199459298180673,2.1195050507192,2.4231187612766094
530,1456704156745693,2.5997667962426787,2.484777149288557,3.007086453556001
531,1456704156759848,2.762646724431483,2.621679059201257,3.3762507864525304
532,1456704156781788,2.638589714422242,2.498087900412796,3.4433328738540965
533,1456704156805851,2.2640579611552276,2.1603492556317585,3.204355932610756
534,1456704156819845,1.7463707150824166,1.7235901068314268,2.7386193467183766
535,1456704156841359,1.2258647579332385,1.3358687481276263,2.181739161879607
536,1456704156865356,0.8373706634892314,1.130075299203199,1.6887396214781139
537,1456704156879356,0.6848030904314542,1.1816591089169755,1.400531575340859
538,1456704156901357,0.8274622552897659,1.4850668074088196,1.4161296797334604
539,1456704156926151,1.2696796871355602,1.9539446089674148,1.7681260343924767
540,1456704156939663,1.9511451540328528,2.4451661508564757,2.404378869481963
541,1456704156962160,2.746262933910418,2.8024428995916963,3.1869562769680644
542,1456704156984167,3.48519970833162,2.908086146954778,3.9193890536964204
543,1456704156999168,3.999468023418731,2.7242691755803583,4.40152504909202
544,1456704157021168,4.176160951450155,2.305151959675428,4.494590681475231
545,1456704157044635,3.9936029431316027,1.7723583794328421,4.16937031694138
546,1456704157059423,3.519881755319669,1.264226198681325,3.5149553722708773
547,1456704157081582,2.8786057550701405,0.883101767059855,2.7025601073141594
548,1456704157104390,2.203262864504068,0.6650376442475961,1.920521533639494
549,1456704157119637,1.6008320297161485,0.5824974925351448,1.3112569212546117
550,1456704157142102,1.1337563669093884,0.5727651540272022,0.9378744257157853
551,1456704157165120,0.8191124208645346,0.5737370224940797,0.788098785603391
552,1456704157188120,0.638974425535235,0.5493289751861886,0.8018448124906127
553,1456704157202105,0.5554481133348583,0.49590941796906607,0.901924222822345
554,1456704157225097,0.5256543357587754,0.4321499638320195,1.0156850278663883
555,1456704157239831,0.5137002490685929,0.3816863042448572,1.0872394055775854
556,1456704157262339,0.49756253413158225,0.3588926764951469,1.0848932465384324
557,1456704157284641,0.47014241824900616,0.3639685272091963,1.0053898717607732
558,1456704157299639,0.4359606096894662,0.38720236379670503,0.872082727490356
559,1456704157321627,0.4062668375186031,0.4171234034563419,0.7244867032891895
560,1456704157344763,0.394391917699314,0.446104487257,0.6018545397716861
561,1456704157359436,0.41136169729709654,0.47034919567989414,0.52809575462019
562,1456704157381831,0.4615828105952043,0.48630454490299757,0.5049315002316751
563,1456704157404764,0.5399054332359609,0.48817266062738357,0.5152225700312255
564,1456704157419439,0.632153031693133,0.46945907762085415,0.5331329626627949
565,1456704157441469,0.7195977107320874,0.4274569838689161,0.5356265329173775
566,1456704157464470,0.7851280222620302,0.366939629142876,0.5108075904375191
567,1456704157479471,0.8178433284669379,0.30000928062517174,0.46083805132459027
568,1456704157501756,0.8145421510771037,0.24187700799124917,0.3993024912367153
569,1456704157524814,0.7789977693691741,0.2048015067879984,0.3447339426188282
570,1456704157539864,0.7205214921645511,0.19311690961051384,0.31315402615116184
571,1456704157561334,0.6521155694564136,0.20156812915278824,0.31236652531864867
572,1456704157584637,0.5876190376415192,0.21774400681647182,0.3396078922416542
573,1456704157600335,0.5379773294340149,0.22765232871534366,0.382884961095786
574,1456704157621629,0.5080837884556614,0.2220824308608516,0.42550587924847355
575,1456704157644763,0.4958260853922043,0.20110769390019823,0.4526905345896743
576,1456704157659760,0.4938801456173211,0.1749196834437178,0.45816990967451876
577,1456704157681432,0.49349450032307374,0.16056477413621495,0.4477419943699802
578,1456704157704694,0.4887559603774978,0.1755278869219183,0.4373622577965471
579,1456704157721666,0.47972577741781885,0.23024763233043669,0.44616847842283514
580,1456704157741670,0.47322775634651226,0.3224758307347391,0.4880335782880694
581,1456704157764664,0.4808426128172487,0.4364476940278984,0.5660215566258943
582,1456704157781666,0.5146375202736908,0.5481828446746347,0.6718663167588199
583,1456704157801958,0.5819380432812741,0.6348731946296816,0.7894101531041107
584,1456704157824969,0.6808934958567405,0.6833589299835292,0.8992520331050912
585,1456704157847983,0.7988943521549863,0.692924713995845,0.9822998509014366
586,1456704157862136,0.9154724456016351,0.6712895723458676,1.021561117500622
587,1456704157885166,1.0089855537067254,0.6269095385404807,1.0032281271071444
588,1456704157907135,1.0632136115433706,0.562819603152097,0.9191527664095965
589,1456704157923169,1.069748050911439,0.47657122848686123,0.7723510216282663
590,1456704157944301,1.0264930309199551,0.36783666052339103,0.5848192096429524
591,1456704157966304,0.9377107888850597,0.2507904606502987,0.40384554738497663
592,1456704157981300,0.8206608683560911,0.16432134919610528,0.3013394648053281
593,1456704158004520,0.7167864224486573,0.17189294917274495,0.36168141519335567
594,1456704158027836,0.6973239313832051,0.3456939204319027,0.6570593697062701
595,1456704158041541,0.8516648926655073,0.7361472158777282,1.214801399458709
596,1456704158064547,1.254665919271857,1.3363124710187153,1.9878449618300544
597,1456704158086764,1.9225986667506267,2.0581567476288467,2.8440289460968597
598,1456704158102759,2.7787825127632413,2.73900578860271,3.5876763906781264
599,1456704158124779,3.6521135396202955,3.186746915340362,4.0153268426501185
600,1456704158147803,4.321086924474089,3.252254839060272,3.9892881038995176
601,1456704158165784,4.59326360313387,2.8978448620724424,3.4976607912496465
602,1456704158185124,4.385469871045457,2.2268829979313356,2.6707658591326693
603,1456704158207069,3.763545768973967,1.4577056580388483,1.745264835085951
604,1456704158221792,2.9229850007994087,0.8527497531802896,0.9937356306754904
605,1456704158245160,2.1252337086604376,0.6323677260487298,0.6485970265094937
606,1456704158267888,1.620109368206879,0.9037732686497814,0.8417609305129258
607,1456704158283083,1.5777818047513765,1.6252271290040892,1.5692309267457445
608,1456704158305082,2.0418881428510476,2.614356554507112,2.684897436455427
609,1456704158326834,2.912046555191579,3.6007124184469026,3.928427084493469
610,1456704158342140,3.9652047541029143,4.311886420652505,4.9890212134743255
611,1456704158364157,4.918652608350679,4.567203792930289,5.594350787866898
612,1456704158388157,5.5187377621052365,4.341161444442016,5.5971624036552
613,1456704158403159,5.620055254155095,3.7644726692575157,5.023881224892768
614,1456704158425160,5.219825000817661,3.058637777875551,4.060765490614754
615,1456704158447183,4.437483994719932,2.4360168082811016,2.981400571571271
616,1456704158461183,3.460248524457867,2.0163791169923986,2.047858795361252
617,1456704158484397,2.4850386371861415,1.7986603339509493,1.4283556834060598
618,1456704158507452,1.6741377049589619,1.692790199672309,1.1617533586292916
619,1456704158522519,1.1271601062483876,1.5849432025918202,1.1743659693221054
620,1456704158552122,0.8685796973848479,1.3985160716948253,1.332322579597615
621,1456704158576148,0.8529072437202216,1.1239570111732393,1.502287082427926
622,1456704158583148,0.9888040615111453,0.8118155595113912,1.5959416782656173
623,1456704158605144,1.1763505620961394,0.5411915163292785,1.5857549931585992
624,1456704158627923,1.3434465278685352,0.3824129922458172,1.4945459655060482
625,1456704158643216,1.4657570705640635,0.36920792425935806,1.3714537726341067
626,1456704158664219,1.562525162836684,0.4877320065347522,1.2674480875041303
627,1456704158688219,1.672242509982629,0.6827299281625803,1.217107893813322
628,1456704158704220,1.820368029650104,0.8767958107808042,1.2281383906997245
629,1456704158725221,1.9946196248693886,0.9965074218681429,1.2801567894318981
630,1456704158748367,2.1422996900602853,0.99742050578823,1.334740675187515
631,1456704158763369,2.1952142409782476,0.8786900172974866,1.3538903163076503
632,1456704158784670,2.110644333006691,0.6806441434235976,1.3174937068079318
633,1456704158807742,1.9029378976819074,0.46637549017211927,1.2304167138699522
634,1456704158823371,1.6437890096281462,0.2965765765857241,1.1171067675892006
635,1456704158847166,1.4293956899432816,0.20911310184265564,1.0084827188619951
636,1456704158867208,1.3332375869819495,0.2104985257807005,0.9276167834915515
637,1456704158883166,1.3700703095484648,0.27987252470256546,0.8797175237659909
638,1456704158905167,1.4890495126794816,0.3812586131888061,0.8508375462836576
639,1456704158927745,1.5986729607466954,0.47796972651638947,0.8169287197371259
640,1456704158943258,1.610504230319642,0.5436161362915504,0.7589967627747279
641,1456704158964261,1.4792537246915936,0.5665154945157089,0.6750217574108378
642,1456704158987268,1.21964130515722,0.5476404009065835,0.580831202810587
643,1456704159003262,0.8944472766461455,0.49530705286642385,0.5001398942160895
644,1456704159025263,0.5837035701746751,0.420835428986351,0.4513434536159545
645,1456704159047531,0.35237931996758654,0.33745721742546625,0.43924086236015386
646,1456704159069533,0.23103717133902238,0.26119882742696476,0.4548637817845995
647,1456704159084539,0.21498456930589724,0.21037976115018417,0.48145666947787913
648,1456704159107757,0.27784668244211486,0.20155866183199359,0.5025623105064081
649,1456704159129751,0.3894239496847824,0.24291570457065684,0.5084614147149996
650,1456704159144705,0.5275734922247656,0.32847648812162566,0.4984876488595423
651,1456704159167728,0.679351580878028,0.4368963158517955,0.4786870724867531
652,1456704159189773,0.8342341609490679,0.5368157364028324,0.4565516102025716
653,1456704159204802,0.976898645192102,0.5975972496944076,0.43602786752073563
654,1456704159228075,1.085858697168416,0.6009732864510666,0.41575556505305106
655,1456704159249579,1.138840478284484,0.548123692766873,0.3914458720106692
656,1456704159272589,1.121155246449513,0.4590460695013954,0.360473852646417
657,1456704159287589,1.0326869407534454,0.365026073623099,0.32510604688829464
658,1456704159309870,0.8907261425100781,0.2977440921673189,0.2918536939596274
659,1456704159324875,0.7269943212538597,0.2790190704795875,0.2674944667938056
660,1456704159347888,0.5787778918929924,0.31431677239743294,0.2547162280695434
661,1456704159369889,0.4773986089213096,0.3918553257715608,0.25030326195559705
662,1456704159385123,0.439353447627053,0.4873569045436582,0.24684106537114778
663,1456704159407892,0.4633665427286092,0.5723830174322043,0.23672316308650534
664,1456704159429716,0.5325411785421958,0.6229641796236772,0.21608495791317953
665,1456704159444189,0.619157484278284,0.6257350503089609,0.18663535839477924
666,1456704159467233,0.6910554766367256,0.5802752011495922,0.15477183426020139
667,1456704159489197,0.7197857892773384,0.4976848490692358,0.12878511712570526
668,1456704159504192,0.6894872029982376,0.3964015192907049,0.11557373851405565
669,1456704159527738,0.603273469198596,0.29704149442873984,0.11813863420317366
670,1456704159551248,0.4838143795170928,0.2181723120821693,0.13470570634468587
671,1456704159564211,0.3671764053740188,0.17392869308288114,0.1597722382378497
672,1456704159587457,0.291649229910126,0.1728697198023602,0.18653468474519436
673,1456704159609410,0.2848308547467001,0.21673903273262135,0.20936073429062765
674,1456704159626249,0.35297849495558414,0.29851590208354345,0.224981492098156
675,1456704159647448,0.4766691148481503,0.4007750745094171,0.23201071973060775
676,1456704159677621,0.6154576226050007,0.49653343447156184,0.22946220575417023
677,1456704159686587,0.7210494830333866,0.5542754608294579,0.2154718977414839
678,1456704159707691,0.7543533843571353,0.5467956657358473,0.18733178415793064
679,1456704159729632,0.6991121779941379,0.46114308673656795,0.14317239966797918
680,1456704159746139,0.5663479522130762,0.3055444032867917,0.08435550925537487
681,1456704159767383,0.38913778404023774,0.10944708438380793,0.016748818346622382
