,timestamp,x,y,z
0,1456704146116973,-6.356473243472816e-05,0.0008035419326961951,0.00039305171367427755
1,1456704146138479,0.002286857485617647,0.002057738997175389,0.0038022020154715136
2,1456704146162481,0.004244902604238915,0.003264855251193793,0.006481835774659157
3,1456704146177482,0.005518116849658087,0.004405271479948371,0.00798266030670474
4,1456704146198488,0.006008667525334691,0.005460292349007567,0.008268869457669211
5,1456704146222999,0.005799574055291749,0.006384573950322858,0.007679505362059667
6,1456704146268507,0.005088957226177544,0.00709146213887177,0.006753803365762718
7,1456704146277508,0.004123308614359966,0.007471227516855276,0.006011877830545606
8,1456704146285508,0.0031642658954437286,0.007439584783329275,0.005776375094295477
9,1456704146300511,0.002482285801635753,0.006992741048868324,0.006088136882877474
10,1456704146321224,0.002342674446025726,0.0062400236181295084,0.0067323396121206636
11,1456704146342727,0.002961196190029733,0.005398883466087517,0.0073575264416479765
12,1456704146387010,0.00444149771144859,0.004756734090531997,0.00763914283119541
13,1456704146387724,0.006725871853993101,0.004612914928332124,0.007420537634516049
14,1456704146402044,0.009579390418473699,0.005210048238532117,0.00677410654807394
15,1456704146418016,0.012606849643145642,0.006659414594186918,0.005964149429871277
16,1456704146440527,0.015300942573233027,0.008872531056378741,0.0053362792538296224
17,1456704146461534,0.017133780206250553,0.011530049788178525,0.005181726631136493
18,1456704146477544,0.01769420042447442,0.014127405732517856,0.0056268936579358005
19,1456704146508538,0.016829450023343687,0.016108620915677663,0.006586256741368382
20,1456704146522353,0.014721093925795166,0.017043088345215326,0.007792250715953707
21,1456704146537556,0.011851048530685466,0.01676352477810942,0.008885760631702426
22,1456704146560559,0.00886562880234464,0.015404670967929475,0.00953163009406516
23,1456704146582559,0.006382461903171549,0.013340292907508523,0.009522882744578003
24,1456704146605561,0.004806060550432016,0.011059026601883218,0.008845378557245369
25,1456704146621598,0.004223276404677809,0.009028474283092879,0.007683951880231672
26,1456704146641864,0.004422510450816179,0.007586056762698538,0.00636675180828515
27,1456704146664867,0.00502391332875807,0.0068780459665211055,0.005265590056771925
28,1456704146680865,0.0056540157838787415,0.0068540199837445435,0.004683614068979012
29,1456704146701875,0.006079769178041745,0.007317642490797606,0.004762923820093522
30,1456704146725402,0.00624787052601636,0.008024433342285378,0.005442189559701413
31,1456704146741165,0.006237739126987247,0.008791289072271233,0.006488154325289157
32,1456704146770094,0.006184343659775317,0.009559546218895753,0.00760246379661446
33,1456704146787124,0.006225700803890796,0.010367715687756724,0.008564815485363015
34,1456704146800893,0.006489165072318943,0.011246244778810007,0.009339629804096255
35,1456704146822357,0.007089075164458951,0.012106411992632961,0.0100797234925069
36,1456704146845318,0.008100050844614208,0.012710041981901248,0.011014665526929817
37,1456704146860318,0.009502966898670613,0.012758688529176993,0.012281887527755785
38,1456704146882454,0.011142606853019498,0.012061243606676085,0.013797807076957403
39,1456704146905454,0.012740094764466019,0.01068457922995723,0.015246990595710675
40,1456704146921272,0.01396442976009178,0.008998215939972515,0.01619868783715308
41,1456704146942526,0.014529871347956611,0.007580108328706328,0.016284458604341388
42,1456704146973311,0.01428222881993338,0.0070177974238676295,0.015341892486397429
43,1456704146981311,0.013254368121490214,0.007683095076832165,0.013465461768437848
44,1456704147004448,0.01168049159396863,0.009567067279363538,0.010966755905949406
45,1456704147025263,0.009954649001763906,0.012242218676792597,0.008282692473667225
46,1456704147041427,0.008524373528436331,0.014978572162766601,0.005871978937964966
47,1456704147063163,0.007741222386100034,0.01698277945712142,0.004126475829496456
48,1456704147086506,0.007725763826545915,0.017669248432097065,0.003311060213981989
49,1456704147101164,0.008311566835802385,0.01684910957326627,0.0035362580247972303
50,1456704147123179,0.009103669767100817,0.014768870043783128,0.004758895352277015
51,1456704147145191,0.009640113539231016,0.01201715515835114,0.00679815242430566
52,1456704147161189,0.00960120867146865,0.009373296807508084,0.009354844198414912
53,1456704147190214,0.0089839004914006,0.007659651871910983,0.012032481889322152
54,1456704147205192,0.008158626875858228,0.007606016427962217,0.01437237862992141
55,1456704147221197,0.007761876187994081,0.009693202955389116,0.015920395940723364
56,1456704147243203,0.008444702207225336,0.013960480794498556,0.016329730714360807
57,1456704147265205,0.010570070415674827,0.01983818903729478,0.015475370995473362
58,1456704147281206,0.013991692379001273,0.026136724104130003,0.01353174796319763
59,1456704147305207,0.018025668356297733,0.031300837207387945,0.010964760915624741
60,1456704147324224,0.02164759205323616,0.03390173664026949,0.008416264642251845
61,1456704147341408,0.023846329964015246,0.03317320257694427,0.006505631401271013
62,1456704147363236,0.02398743910888047,0.029330268201898532,0.0056217510164206196
63,1456704147386414,0.022026077613079374,0.023496587523176297,0.00579951942647516
64,1456704147408238,0.018478581838805845,0.01725965294959477,0.006741160007678003
65,1456704147423247,0.014182669407531164,0.012063577974803813,0.007964723817418865
66,1456704147445264,0.009978684184378061,0.008724617834937724,0.008993099104547578
67,1456704147467265,0.0064652795958940945,0.0072686084681596935,0.009491205375060542
68,1456704147484266,0.00391387454787121,0.00710965379378863,0.00931615220209854
69,1456704147505271,0.00232467617348272,0.00743516296837232,0.00850675104144847
70,1456704147528973,0.0015469458105330826,0.007604199828694143,0.007252728201949668
71,1456704147542943,0.001390160008747506,0.0073988470247869425,0.005856694024571193
72,1456704147565677,0.001688094166834882,0.007047941839364617,0.004677267609398977
73,1456704147588680,0.0023101991202500237,0.007032792319569131,0.0040455253785215695
74,1456704147603681,0.0031369727367173603,0.007770427810391014,0.00416743856527172
75,1456704147626189,0.004030252725715422,0.009330045408821578,0.005040585477957115
76,1456704147648697,0.004830022404914424,0.011334087112549563,0.0064188797184756285
77,1456704147663699,0.005391706614476966,0.013109454453717407,0.0078561319810007
78,1456704147685700,0.005648400670002099,0.014019063052974741,0.008840120608097815
79,1456704147708701,0.005658523070034095,0.013789708094385032,0.008986575849204467
80,1456704147724215,0.005599713387508203,0.012638853794073288,0.008213388643197529
81,1456704147752723,0.005698454592829371,0.011124765304565834,0.006799268167698626
82,1456704147768724,0.006124395565510916,0.009828955570667241,0.005277955382191301
83,1456704147783724,0.006901657689347673,0.009083081230647817,0.0042087656778467
84,1456704147805725,0.007881447037479944,0.008894402745815723,0.003934229906193705
85,1456704147830931,0.00878927572793237,0.009064618706578355,0.0044402668385622596
86,1456704147844136,0.009327084457610617,0.009368388515066961,0.005380366883738387
87,1456704147866145,0.009289937494059814,0.009651271904305139,0.00624736568073463
88,1456704147889134,0.00865138907902567,0.009809423315462692,0.006606869048558348
89,1456704147904135,0.0075808279391459685,0.009725902973434111,0.006276403717391363
90,1456704147926176,0.006379811829152734,0.009264902224523565,0.0053678213639187875
91,1456704147949192,0.005358189738239649,0.00835564150314978,0.004191896676656495
92,1456704147970495,0.0047040538557519915,0.0071033725162691266,0.003096988420774851
93,1456704147986193,0.004414778843081805,0.0058272892037164676,0.002332243453333179
94,1456704148009195,0.004329988538667181,0.004970769338680437,0.0019923261496290964
95,1456704148030213,0.0042483225020634,0.004916652846245944,0.002048375729808194
96,1456704148046221,0.004057525682846193,0.0058031354184475805,0.002429519741729702
97,1456704148069223,0.0037992571007541684,0.00743857283335998,0.003103393888140313
98,1456704148090224,0.0036315486149617856,0.009366606183927479,0.0041117267046863705
99,1456704148106225,0.0037159691374306614,0.011068312293817942,0.0055433725405149336
100,1456704148129252,0.004103137065344196,0.012225780329124546,0.007460786097318255
101,1456704148150260,0.00469077511066556,0.012919835101777204,0.009816061080270963
102,1456704148166261,0.005282067977237333,0.013625207578361876,0.01239100229133888
103,1456704148188262,0.005705918597375809,0.014952085895637648,0.014790636832191133
104,1456704148209263,0.005918687163497562,0.017251102777227637,0.016523592611044795
105,1456704148225814,0.006022676277252867,0.020323538240083996,0.017187978096976583
106,1456704148249375,0.006199626637200503,0.023435002111107685,0.01671098649768688
107,1456704148270390,0.006614025177532075,0.025640302967741075,0.01549530353117693
108,1456704148286388,0.007345121320332418,0.026236629892093157,0.0143149571820276
109,1456704148309392,0.008367580532903651,0.025103488695861022,0.013945919230506486
110,1456704148330028,0.009567222333294448,0.022775816743719243,0.014722547143651416
111,1456704148345544,0.010775907387906632,0.02024013059688781,0.016301554506625442
112,1456704148368500,0.011815174033890537,0.018550975258388246,0.0178067224239021
113,1456704148389710,0.012530026229871684,0.018418957834282053,0.018295122560094204
114,1456704148405501,0.012796197634220869,0.019930224553384692,0.017281344829851664
115,1456704148429716,0.012516693755970648,0.022505638643990456,0.015011646201481571
116,1456704148452430,0.0116453689972507,0.02510910061080158,0.012332621860859764
117,1456704148466431,0.01024136696139506,0.026626271554487154,0.0102485534888875
118,1456704148489432,0.00850508237324248,0.026285588585126234,0.009432783295990921
119,1456704148512435,0.006745969510671615,0.02396733990731243,0.009950416455280876
120,1456704148525949,0.005285839918251511,0.020259286833056767,0.011302221411891708
121,1456704148548459,0.004348427980051045,0.01621311738986984,0.01272287153103308
122,1456704148571458,0.003992418785770505,0.012911078651378416,0.013554196929450618
123,1456704148585459,0.004119157747574858,0.011057439389576571,0.013509910293534213
124,1456704148608492,0.004545443530124951,0.010779818575596003,0.012736209235939948
125,1456704148631978,0.005095569229152403,0.01168937605235456,0.011683498297992218
126,1456704148645484,0.005659275198813819,0.013113640740185853,0.010870213259606708
127,1456704148668486,0.006192115543192508,0.014364261931412273,0.010634795560842068
128,1456704148691487,0.006677242809832563,0.014935665392180155,0.01097152271049875
129,1456704148705488,0.007086354209108061,0.01459607702170684,0.011530461452843333
130,1456704148729207,0.007364869953538799,0.013382859089022215,0.011796892426511833
131,1456704148751464,0.007445110539156109,0.011536968991983275,0.011361273823546033
132,1456704148766429,0.007277503753569217,0.009410491474084962,0.010125365665273795
133,1456704148788461,0.006861303712177186,0.007366910419149748,0.008330197207394849
134,1456704148812432,0.0062549991859927505,0.005687195886780853,0.006411248356099241
135,1456704148826373,0.005559316330388466,0.004504545304911422,0.00478787090996874
136,1456704148848638,0.004882675294671507,0.0037945483610443433,0.0037068438187558015
137,1456704148871639,0.004304730221852818,0.0034261547212624762,0.0031991735632041257
138,1456704148885639,0.0038509544597791854,0.0032466055076154736,0.003137547392336177
139,1456704148908640,0.003489364280350372,0.003158308401434719,0.003341062539596407
140,1456704148932149,0.003156180114149052,0.0031559432921248335,0.0036674838167668677
141,1456704148953156,0.002803624881624647,0.0033140880909208756,0.004051582112099148
142,1456704148969157,0.0024452657324195003,0.0037341573896540548,0.004481845849963825
143,1456704148992350,0.0021688354478108284,0.0044724042682421404,0.004942905527357078
144,1456704149013161,0.002103891080207486,0.005480016531529974,0.005369988255773174
145,1456704149028963,0.0023599589669381464,0.006586586225614566,0.005653024391901238
146,1456704149051270,0.0029663978564008495,0.0075434156614776204,0.0056924391091938975
147,1456704149073271,0.00384085391372653,0.008115231122816353,0.0054668465119649704
148,1456704149088454,0.004800161733829558,0.00817978098953713,0.005059871897941343
149,1456704149112273,0.0056132403945985485,0.0077831912171699175,0.004625080384232525
150,1456704149133802,0.0060784743381322205,0.007117229299237068,0.00431660167349774
151,1456704149148803,0.006093661927518045,0.006426242129269667,0.004234021352167646
152,1456704149170804,0.005687732820037099,0.005892978191382266,0.004408975727564002
153,1456704149192804,0.005002857337270589,0.005565781921317228,0.004821327012290049
154,1456704149208806,0.00423988753261726,0.005362442026493945,0.005410924182732158
155,1456704149230820,0.0035927699624608922,0.005137946633426741,0.006067024051717403
156,1456704149252330,0.0031944238681209766,0.004770895369992991,0.006616489518616396
157,1456704149268332,0.003086922434961215,0.004223497570353589,0.006852050546569864
158,1456704149290333,0.0032210297358342666,0.0035527387638066934,0.0066171633357503526
159,1456704149312334,0.0034825511595575165,0.002879130455686875,0.005913884482450504
160,1456704149328990,0.0037344220847172972,0.002340893147900814,0.004967771463565226
161,1456704149350546,0.003860697410689467,0.0020617862061054395,0.004194910743140827
162,1456704149373547,0.003803628576280591,0.002139642307320547,0.004064874676374164
163,1456704149388548,0.003588723989161729,0.002641645567270575,0.0049114515893717015
164,1456704149410551,0.0033296126274400106,0.0035921482187421666,0.006777328310226303
165,1456704149433562,0.0032024201035923544,0.004954219043026131,0.009371926014624044
166,1456704149448569,0.003388080027684945,0.006616160454374946,0.01217751469842866
167,1456704149470570,0.003999060520369668,0.008390769700326099,0.014670820075989618
168,1456704149493571,0.00502166001453241,0.010031332068729838,0.016554728044684237
169,1456704149508572,0.0063037028247630985,0.011275275213084803,0.017860548928143302
170,1456704149531045,0.007599908753350619,0.011930584471079643,0.01884034170759214
171,1456704149553510,0.008663833466084639,0.011998099193449803,0.019712365229772273
172,1456704149568511,0.009352741960963524,0.011775671023823733,0.020440696522156184
173,1456704149592513,0.009693875537705935,0.01185503387510926,0.02071111071544324
174,1456704149613514,0.009864379411783872,0.012947526908822024,0.020125187920693677
175,1456704149628929,0.010080436921348235,0.015568938909269966,0.018491066730030887
176,1456704149650417,0.010454286153541935,0.019718176063858173,0.016032708017380326
177,1456704149673419,0.010907865358426997,0.024722321255926685,0.013383465013342942
178,1456704149688419,0.011198389132806623,0.029363588714557198,0.01134808423252882
179,1456704149712421,0.011039590473513793,0.03227543942003939,0.010552546730259588
180,1456704149733429,0.010247606618264554,0.032452291246178516,0.011165973625469519
181,1456704149748434,0.008837534658791396,0.029641780115627413,0.012827249139208343
182,1456704149770435,0.007034446795706772,0.024437546239216026,0.014793303832927925
183,1456704149793436,0.005204052912968557,0.0180376467419068,0.016233487327094447
184,1456704149808437,0.0037331652115714827,0.0117937379228567,0.016553748179822962
185,1456704149838865,0.002903543218407234,0.0067663340744208034,0.01562463447060634
186,1456704149853866,0.002805358291572561,0.003473006103959327,0.01380909769232583
187,1456704149868866,0.0033198322353671624,0.0018886206202832483,0.011766162057259865
188,1456704149890868,0.004170514085221252,0.0016233280714193674,0.010127848995465745
189,1456704149913870,0.005018667288388658,0.0021525076681997986,0.009224592541742994
190,1456704149934959,0.005568939905832065,0.0030042912833477303,0.008997388648212644
191,1456704149950954,0.005652186768413542,0.0038656032434966118,0.009111346382106563
192,1456704149974956,0.005261265047974927,0.004605409133085235,0.009173552649847903
193,1456704149995257,0.00453447530876801,0.00523285279915817,0.008926373796372197
194,1456704150010956,0.0037021032222765973,0.005818443883957624,0.008331054408060227
195,1456704150033966,0.0030192915772715824,0.0064115230071996225,0.0075312778171809334
196,1456704150055305,0.002700799626907413,0.006985028679936176,0.006745285462484553
197,1456704150070975,0.0028645160204527,0.007426669633772445,0.006151163197368516
198,1456704150093976,0.0034921955353561145,0.007577191386971055,0.005811453259742154
199,1456704150114978,0.004422466180677491,0.0073006071008496305,0.005658359965269409
200,1456704150131021,0.005389531842354444,0.006560593318181526,0.005539771621807627
201,1456704150154249,0.00610442518928513,0.005468937735767871,0.005302424248144896
202,1456704150175247,0.006351079446535076,0.0042741677632293345,0.004869114296061385
203,1456704150191250,0.006055411722599525,0.003283521044695539,0.004270668127422651
204,1456704150214242,0.005297199231310446,0.0027498246607925475,0.003621287723492333
205,1456704150234401,0.0042658688536959585,0.0027772166529184085,0.0030578170393647085
206,1456704150251409,0.003188640318883464,0.0032886152633889655,0.0026792165018468084
207,1456704150274408,0.0022652829695014734,0.004065154248500299,0.002515281436811977
208,1456704150295409,0.0016308619293935547,0.004836359287558702,0.002531254727466557
209,1456704150311410,0.0013492268703027975,0.005381877565197973,0.002654102372611707
210,1456704150334138,0.0014254754433775585,0.005602628270089304,0.0028000616657571247
211,1456704150357147,0.0018203015812653246,0.005531528538946628,0.002892072013351727
212,1456704150371148,0.0024549036552029583,0.00528120948186378,0.0028694306295688615
213,1456704150394149,0.003208646465337433,0.004960200557234723,0.0026982764377160994
214,1456704150417150,0.003923529260191307,0.004610095716956833,0.0023857566851796072
215,1456704150431162,0.004428872749473061,0.00420518063329472,0.00199059302724224
216,1456704150453456,0.004584561232165121,0.003716227067258647,0.0016202748623122783
217,1456704150476456,0.004325061934647393,0.0031995733982802766,0.0014120329233386286
218,1456704150491457,0.0036853340668385093,0.002857616157410439,0.00150189192989413
219,1456704150520044,0.0028013264955778386,0.003029204288612349,0.0019879496755268594
220,1456704150536534,0.0018858524916723202,0.004093836312382217,0.0028945297138989385
221,1456704150550535,0.0011814463970160687,0.006305277959853532,0.004147962563029523
222,1456704150574536,0.0008970560223993241,0.009610164690621367,0.005581754828262661
223,1456704150596538,0.0011472122188391073,0.013542554043822822,0.006990005210888339
224,1456704150610538,0.0019172249643387119,0.01728180357995207,0.008228005917055857
225,1456704150634049,0.003069023825887742,0.019895748125321026,0.009315557751627937
226,1456704150656556,0.00438725530718186,0.020689807920082407,0.010464411897815848
227,1456704150671556,0.005651891440691984,0.019510997979634927,0.011974154441479978
228,1456704150693558,0.00671262684677464,0.01686767795965172,0.01402513031374054
229,1456704150716560,0.007535269439834903,0.013813369722998646,0.01648534306644019
230,1456704150738578,0.008199132113397668,0.011639705769544127,0.018871164255601862
231,1456704150753579,0.008844888421003868,0.01147557821296341,0.020530629913282552
232,1456704150776580,0.009591705628541504,0.013906323396671746,0.02098231375635065
233,1456704150798581,0.010456788503474895,0.018733654947776575,0.020222221270256944
234,1456704150813583,0.011321033324131891,0.024976224223372645,0.018798949602998744
235,1456704150836660,0.011974912455145256,0.031134594646413934,0.017584377625305236
236,1456704150857697,0.01223162106709367,0.03563812277048164,0.017352856329172783
237,1456704150873728,0.012036887975770932,0.0373200685223016,0.018394450791210583
238,1456704150896663,0.011497400280921891,0.0357653442728675,0.020363653521015868
239,1456704150917663,0.01081060320601392,0.03141794110980147,0.022439759895929674
240,1456704150933705,0.010150180104666506,0.025399988470280885,0.023718440290022062
241,1456704150956676,0.009581559134450471,0.019097468854618223,0.023632751526596926
242,1456704150977678,0.009050654160357822,0.013687168399537944,0.022182631133950158
243,1456704150993878,0.008441239953796663,0.009819193511804245,0.019863092443867643
244,1456704151016898,0.007657580511325876,0.007571559798227037,0.017360874932732626
245,1456704151038890,0.0066805395458487925,0.006630006295030388,0.015215097032978544
246,1456704151054103,0.005574448295842542,0.00654356828805383,0.013628513394885133
247,1456704151077105,0.00445941913857904,0.006919097843706662,0.012495700986870192
248,1456704151097912,0.0034755961792673515,0.007500311430820317,0.011577877124068275
249,1456704151113894,0.0027539247414410132,0.008150641105083813,0.010688037566711639
250,1456704151136194,0.0023942279382070768,0.008788782084834799,0.009780238586738241
251,1456704151158319,0.002446036522214938,0.009326414378089525,0.008923385747615122
252,1456704151174316,0.002889773326720493,0.00964495844265226,0.008213980374672076
253,1456704151195312,0.003623210040172414,0.009620925543891278,0.007699851528478444
254,1456704151218199,0.004466110249624445,0.009177968817944143,0.007355348471778263
255,1456704151234402,0.0051959024549880035,0.008330583164721217,0.00710345137550542
256,1456704151256374,0.005612203649885336,0.007193006513913907,0.006852550441000697
257,1456704151278385,0.0056047872968148305,0.00594610599610945,0.006519792591020636
258,1456704151293385,0.005188967475287001,0.004778379316100359,0.0060406778051451705
259,1456704151315402,0.00448861075167775,0.003833030465901907,0.005384674782454157
260,1456704151338386,0.003679126210812479,0.003184980964790193,0.004583981090766444
261,1456704151353324,0.002924049245339184,0.0028453046789572323,0.003752028569058361
262,1456704151375380,0.0023337119276416263,0.0027740266896320153,0.0030600833076285154
263,1456704151398328,0.001952980758870169,0.0028903769070599784,0.002668989674669867
264,1456704151414328,0.0017693388949834169,0.0030862898695741803,0.0026503983032306303
265,1456704151436347,0.0017313432339528963,0.0032515350492772752,0.00294310628490959
266,1456704151459181,0.00177071373001444,0.0033064979486420788,0.003370159248625523
267,1456704151473379,0.001821566721103179,0.0032277539574838347,0.0037093252774572896
268,1456704151495377,0.0018328428198614156,0.003052918436087264,0.003782805188489363
269,1456704151518377,0.0017765965674919405,0.0028610014586126914,0.003524198764916102
270,1456704151534349,0.0016565830428150387,0.0027349297607481486,0.002995793553832335
271,1456704151555711,0.0015149927126693905,0.002721622352362692,0.002356449305282337
272,1456704151578712,0.001429191508554799,0.002810053177156786,0.0018003409046836274
273,1456704151593712,0.0014926589316151058,0.0029427358503726735,0.0014911506599245943
274,1456704151615988,0.0017827508979718517,0.0030582052916692795,0.0015118219469732316
275,1456704151639657,0.0023256032129322993,0.003141130888831495,0.0018437775900252197
276,1456704151653658,0.0030713196257220925,0.0032492307019052003,0.0023813081075840393
277,1456704151675888,0.003891560969595022,0.0034986496193111128,0.0029756525822678417
278,1456704151698661,0.004607873746702313,0.004011737483777933,0.003492477526661223
279,1456704151713663,0.005048684212558934,0.0048494158266938385,0.0038614362512842744
280,1456704151735546,0.005115297765255542,0.005958984220464572,0.004100091731465366
281,1456704151749596,0.004824964672714939,0.007165438802044032,0.00430415458363974
282,1456704151771842,0.004306610519660738,0.008218844755719991,0.004605853874209071
283,1456704151795557,0.003750106341537921,0.008886715646522951,0.005109918063824784
284,1456704151809564,0.0033351442765569245,0.009056156606576696,0.00582635820465707
285,1456704151832069,0.0031744455631192107,0.008794149317945296,0.0066327555718725265
286,1456704151854582,0.003294927181132009,0.008324592014316345,0.007303629433671566
287,1456704151869620,0.003658187882327541,0.00792770964670883,0.007621349993147278
288,1456704151891586,0.004201108370944909,0.007818631267428327,0.007530527226222995
289,1456704151915844,0.004868956930011451,0.008071712760356026,0.0072469280925368555
290,1456704151929806,0.005621469421565813,0.008624825154950218,0.0072289528796431425
291,1456704151951747,0.00641277835270051,0.009354463008713341,0.007985397119483094
292,1456704151974534,0.007166150753985796,0.010178080059921555,0.009796324304377314
293,1456704151989606,0.007770563931528056,0.01112455038372304,0.012497664045109417
294,1456704152011751,0.008112934260587153,0.012327698735008937,0.015471080369736356
295,1456704152034973,0.008132922901299574,0.01394044117256693,0.0178842237781708
296,1456704152050295,0.007864057603652198,0.016015221451458672,0.019084684008400882
297,1456704152072268,0.007427682159730006,0.018415030981897465,0.018936223081233373
298,1456704152095284,0.0069772932221154466,0.020795714372295843,0.01788480596976884
299,1456704152110355,0.006624117386616782,0.02266595896624323,0.016695035262069988
300,1456704152132067,0.006386238656319567,0.023517730418867795,0.016018595778482962
301,1456704152154875,0.006191343987760019,0.023006105270333005,0.016068610250771657
302,1456704152169627,0.005933590416185751,0.021113880702850047,0.016581185075818305
303,1456704152191802,0.005549570867038739,0.018201211371186268,0.01703823334788093
304,1456704152214802,0.005062350287049875,0.014882473940808614,0.016981013353269542
305,1456704152229882,0.004564217581330636,0.01178257325497315,0.01624221048726758
306,1456704152252351,0.004152396525085197,0.009309926629648564,0.015005084180940657
307,1456704152275179,0.0038635140887737095,0.007569059032476752,0.01368087877157301
308,1456704152290181,0.0036511873997286475,0.006435351815342076,0.012669400941625608
309,1456704152312347,0.0034192661443987263,0.0057086920709217654,0.012132327670184916
310,1456704152334928,0.0030846858433951933,0.005233648907493448,0.011914288791529651
311,1456704152349438,0.002628126325988121,0.004933015517790344,0.011657246720069372
312,1456704152371442,0.0021061599526266237,0.0047789951965741435,0.011024888034060078
313,1456704152394649,0.0016263751339804279,0.004752592575172889,0.009888699976770741
314,1456704152409699,0.001305110242619683,0.004819420587774279,0.008371970524520858
315,1456704152432330,0.0012294303077688526,0.004923515323310263,0.0067549312442424314
316,1456704152455165,0.0014360141364518006,0.00499394217848647,0.005326798336290636
317,1456704152470166,0.0019079814840962336,0.004963782135047334,0.004276596799245245
318,1456704152492315,0.0025830750357582672,0.004799401622473125,0.003660416243416198
319,1456704152515168,0.003365645125088142,0.0045250241976942576,0.0034256819858965817
320,1456704152529963,0.004138913398975577,0.0042210027888568424,0.0034544849088519827
321,1456704152551836,0.004778469352218873,0.003990601715496195,0.0036023695542778647
322,1456704152575198,0.005169405407409544,0.003915418098097878,0.003727980988801641
323,1456704152590134,0.005228656269903146,0.004024654314796779,0.003718060315789201
324,1456704152613843,0.004931567623799512,0.004286768645588404,0.0035125863529656682
325,1456704152635146,0.004335137457044999,0.004618358013806542,0.0031291059067794246
326,1456704152650140,0.003582419584477807,0.004906201578239911,0.0026759308474036355
327,1456704152672141,0.0028734871314802465,0.005042120747713478,0.0023373704250475875
328,1456704152695143,0.0024035913869483727,0.00496526310535771,0.00232037892611414
329,1456704152710144,0.002290818974790055,0.0046960779912531515,0.00277395734318932
330,1456704152732163,0.0025282052241683665,0.004341742776801548,0.0037159434444382364
331,1456704152754973,0.002987350635347626,0.004062299258264483,0.005005330389245416
332,1456704152769965,0.0034738794265884564,0.004007513351318774,0.006377009557174203
333,1456704152792254,0.00380638335448876,0.004252083532307304,0.007525086422469514
334,1456704152815233,0.0038803435185238056,0.004758277894884837,0.008199779323459408
335,1456704152837901,0.0036930539605687495,0.005381275519786793,0.00827966525472369
336,1456704152851574,0.003330308624930306,0.005913723552455455,0.007794111720350381
337,1456704152874570,0.002930580854920217,0.00615154133781078,0.006895543683008091
338,1456704152897720,0.0026415453384582444,0.005958992328695126,0.005806283779927643
339,1456704152912571,0.002576736302549759,0.005318647419415673,0.004772075851951902
340,1456704152935298,0.002778344362984618,0.004362073857293881,0.004037952199547125
341,1456704152957591,0.003197078189172235,0.00337743309652466,0.0038358311071591644
342,1456704152971597,0.003704086414094189,0.0027811538405296244,0.004357260013452501
343,1456704152994598,0.004144445085230437,0.0030382069582549583,0.005692856565906997
344,1456704153017937,0.0044226326351359,0.004531374365822797,0.0077515158901175
345,1456704153032388,0.004583673793745428,0.007407698690777167,0.01020715234574448
346,1456704153054704,0.004838983758835021,0.011454558503317152,0.012532399646016698
347,1456704153078005,0.005504628511368177,0.016068462497500366,0.014151696654559974
348,1456704153091999,0.006867795720433459,0.020365523283330696,0.014679525964331225
349,1456704153115062,0.009040096849530844,0.02342993960574908,0.014132851470881235
350,1456704153137798,0.011862125088173421,0.024619127875467734,0.012986740023528086
351,1456704153152090,0.014896813330832903,0.023796494848187546,0.01201790807891469
352,1456704153174800,0.01751818566713075,0.021391150327339254,0.01199833886551955
353,1456704153198127,0.019081082758756456,0.018266557600637896,0.013372805308131225
354,1456704153212097,0.019134586230201846,0.015454031378748555,0.01605928712699127
355,1456704153234808,0.017608118697705132,0.013840438595090753,0.019471708647092315
356,1456704153257831,0.014877662745132926,0.013905364085647161,0.022776808875387872
357,1456704153271826,0.01165324484561236,0.015590463220159462,0.025268192286312392
358,1456704153303830,0.008721503865247072,0.018338992084053957,0.026648209673664346
359,1456704153317833,0.006663251918802556,0.02127419187943965,0.027050074827362332
360,1456704153332242,0.005676683692696549,0.023442181966739313,0.026808866608310174
361,1456704153354996,0.005572791215332994,0.02405777170352516,0.026168459498029796
362,1456704153377997,0.005920530314022354,0.02271782629983012,0.025140562786702358
363,1456704153391988,0.006254653945901252,0.019537280534744197,0.023592432808062364
364,1456704153414926,0.0062480795185597,0.015142192101752442,0.02146110475763541
365,1456704153437918,0.005789890894692418,0.010485461512913645,0.018919741025967902
366,1456704153451584,0.004965695163304991,0.006538528570296759,0.016385082802542406
367,1456704153474948,0.003975391939315857,0.003985039173932587,0.01436993641818348
368,1456704153497580,0.003034725761868898,0.003037633449817856,0.01326415388021107
369,1456704153512580,0.0022991688790972957,0.0034315374232266496,0.013151917214957707
370,1456704153535091,0.0018313308210993083,0.004575612602236388,0.013753990274273228
371,1456704153557432,0.0016124024689090754,0.005792957334393039,0.01452420822329933
372,1456704153579427,0.0015804557178366158,0.006558987742976949,0.014852893238002249
373,1456704153594763,0.0016716491071538033,0.006649754125042501,0.014287797848028519
374,1456704153617730,0.0018476961031683597,0.006154416131601993,0.01269608006551941
375,1456704153632222,0.002105776542149679,0.005367860454890294,0.010323697238318778
376,1456704153654846,0.0024726817728302005,0.004627667066711438,0.007730883829238668
377,1456704153677554,0.00298297548725878,0.004170103522478818,0.005608366777966393
378,1456704153691735,0.003643145339236523,0.004056864873672708,0.004526139224978849
379,1456704153714660,0.004395977359860665,0.004187888021047718,0.004711592106018759
380,1456704153737656,0.005110773861779998,0.004379909509695468,0.005956823156288548
381,1456704153751666,0.0056180515573024,0.004463932141603037,0.007704091189364244
382,1456704153774668,0.005778828185839295,0.00435173157691331,0.009275131325099073
383,1456704153797948,0.005549406567740974,0.004048769881195224,0.010136389651551843
384,1456704153811896,0.00500121602588467,0.003626691945532693,0.01007546112125706
385,1456704153835111,0.004287018572867156,0.0031825291551573205,0.009219830600889097
386,1456704153858226,0.003581320361759957,0.0028018711300285093,0.007916838459168149
387,1456704153872105,0.003031240914124401,0.0025320571289459844,0.006554922886756461
388,1456704153895300,0.002732698920933071,0.002371881989997058,0.005415970925750619
389,1456704153918301,0.0027227695760297273,0.002286684443703774,0.00461501135702883
390,1456704153932285,0.0029751778992687956,0.0022470716094581218,0.00412755688895729
391,1456704153955640,0.0033992094481222505,0.0022686521713411794,0.0038598370137029603
392,1456704153977648,0.003853785946640621,0.002420250182953941,0.003710872541269072
393,1456704153991643,0.004184640104484126,0.0027847788855219747,0.0036012399500337648
394,1456704154014644,0.0042763811929814165,0.0033908298826674016,0.0034714800812149617
395,1456704154037757,0.0040973462531641,0.0041581609338190665,0.0032672252622795556
396,1456704154059766,0.0037155650471435214,0.004896883368731915,0.0029316536834403323
397,1456704154075063,0.003276778309291364,0.005369322581322204,0.002420771036983787
398,1456704154097767,0.0029504566971354264,0.0053871910957191006,0.0017412956993708558
399,1456704154120051,0.0028631311269930997,0.004900356000943592,0.000992163811172972
400,1456704154134937,0.0030470423951080524,0.004041972874894021,0.0003819466076351104
401,1456704154157022,0.0034274319764925087,0.0031124116445894875,0.0002002695597151252
402,1456704154189023,0.0038519899547190084,0.00250151695519426,0.000737963804775201
403,1456704154195023,0.004145882310509688,0.0025696095170471343,0.002173067221168263
404,1456704154217199,0.004172126514183712,0.003528199924965359,0.004461364014660555
405,1456704154240134,0.0038874009671229478,0.005364675952192553,0.007282141811986181
406,1456704154254880,0.0033883337366476603,0.007836300567844404,0.010083413771424219
407,1456704154276846,0.0029329582680537674,0.010533948319767332,0.012240864514144469
408,1456704154300057,0.0029099261790172318,0.013000701472578244,0.01329560821723332
409,1456704154314982,0.0037345119780431567,0.014879490878490935,0.013183149500330607
410,1456704154336609,0.0056818949081239465,0.01604288282248851,0.012335932433390212
411,1456704154360123,0.008712620858099969,0.01663980602397491,0.011568522073577291
412,1456704154374124,0.01237571268171952,0.01702124847428873,0.011750945690436856
413,1456704154404126,0.015865246094983576,0.017584064618446058,0.013398837914052924
414,1456704154419127,0.01825023992064045,0.018626036683600498,0.016381963452330235
415,1456704154434633,0.018811474915122323,0.020276005064866192,0.019924858718058675
416,1456704154457193,0.01734050315089158,0.022492701690852206,0.022942487697527957
417,1456704154480145,0.014246470934643663,0.02509308366372814,0.02456535962928223
418,1456704154495190,0.010408933930050194,0.027783405448395505,0.024565301501384074
419,1456704154516514,0.006853278622552144,0.030183026708708507,0.02341877801004792
420,1456704154540255,0.004405864420967568,0.03184282907344655,0.02196760821367522
421,1456704154555281,0.00346584612279525,0.03228812699394444,0.02090889612160457
422,1456704154577278,0.00395175108199865,0.031137179781774903,0.0204449665638451
423,1456704154600257,0.005403165132955037,0.02829514622005965,0.02027523174503519
424,1456704154614260,0.007172608280811282,0.024111487687179044,0.01986507713528248
425,1456704154637088,0.008634196426436338,0.019345544590756405,0.0187861916440703
426,1456704154668584,0.009351465121520883,0.014898896027131615,0.016945581077716477
427,1456704154674944,0.009169614155673987,0.011454252419146181,0.014621368439255315
428,1456704154696586,0.00821946865819881,0.00923504556147837,0.012319081557897384
429,1456704154719871,0.006840991416632391,0.00800823659509203,0.010532131702872956
430,1456704154735373,0.005452708338235923,0.007292844745624848,0.009524709934847287
431,1456704154757380,0.004409056728457387,0.006633646238013301,0.009235530600796736
432,1456704154779383,0.003894264235311587,0.005798187768258134,0.009336367554910133
433,1456704154795384,0.003888331254750949,0.004825126816291386,0.009407241081626947
434,1456704154817384,0.00420952250821191,0.003938191233784147,0.00914020366894552
435,1456704154840467,0.004606516671484883,0.00339698762094396,0.008473414425590508
436,1456704154854802,0.004858384805828171,0.00336310596908931,0.007594932127188384
437,1456704154876476,0.004844893501537385,0.003829815754405594,0.006824115529145685
438,1456704154899472,0.004567962018725625,0.004626314148496241,0.0064378553293184485
439,1456704154914473,0.004127354352041968,0.005481969742646135,0.006528658851587648
440,1456704154937268,0.003668377937861085,0.006122016472644897,0.006958668941157398
441,1456704154960093,0.0033239006900495083,0.006359427621382225,0.007423961276982659
442,1456704154974813,0.0031718916603630126,0.00614923831459004,0.00759165580326316
443,1456704154996813,0.0032216802437008045,0.005585010405584852,0.007244141424558331
444,1456704155020031,0.00342606408875959,0.004843166472555699,0.006370095165249765
445,1456704155035222,0.0037040588332601723,0.004108240561764593,0.005168569295340109
446,1456704155056774,0.003961827244531099,0.0035190900350165737,0.003966393391218341
447,1456704155079770,0.00411028062364973,0.0031549593759321037,0.0030854038122911866
448,1456704155094998,0.004082772570864916,0.003049943361260116,0.002719610529153994
449,1456704155117002,0.003852555831099352,0.0032090560351587705,0.002873239796982606
450,1456704155140100,0.003444616977734726,0.003606202306510856,0.003374387846044643
451,1456704155154799,0.0029353172069133786,0.004165717286114001,0.003944976708416283
452,1456704155177134,0.0024362375445428105,0.0047480114304190675,0.004294859009673131
453,1456704155200134,0.0020650551551955154,0.005160757321458998,0.004211909252149172
454,1456704155215018,0.0019130288938007975,0.005202059452503195,0.0036286341545288133
455,1456704155237114,0.0020199100670952146,0.004727987925879508,0.0026543680657779363
456,1456704155260163,0.0023623972379772386,0.003729963476980662,0.001570322632620557
457,1456704155275167,0.002858717153780556,0.0023986503599827454,0.0007890079336771563
458,1456704155296835,0.003392741479961945,0.0011405705367580142,0.0007767478114085468
459,1456704155319843,0.003858381069073596,0.0005171688918303175,0.0019356794817425521
460,1456704155342160,0.00421141330022042,0.0011003374026685954,0.004454485586927646
461,1456704155357251,0.004500124919673636,0.003273279504763889,0.008169232077754439
462,1456704155379160,0.004847558991574102,0.0070391466929605965,0.012508325474194726
463,1456704155403177,0.005384293052282685,0.011920786610399154,0.016595460875971687
464,1456704155417179,0.006166056339738864,0.017024071959672097,0.0195250593557425
465,1456704155440249,0.007126688150759981,0.021279911691312922,0.02071429803921123
466,1456704155462342,0.008095599504352968,0.023790399187683338,0.02014580713729624
467,1456704155477244,0.008864096711885316,0.024131101971117307,0.018348398781182284
468,1456704155500249,0.009256967899965511,0.02246537158420918,0.01612905123925982
469,1456704155523288,0.009177646662107792,0.019429289518379005,0.014226777388635259
470,1456704155537093,0.008625197850126377,0.015879326411868504,0.013070456369217543
471,1456704155559134,0.007695180835813548,0.012648821942773518,0.012714701402569048
472,1456704155583169,0.006569965426919244,0.010403214352248892,0.012923233290553511
473,1456704155597172,0.005494798973396663,0.00958904824373329,0.013331148692944203
474,1456704155620171,0.004734642377649459,0.010417573070574266,0.01362318246576246
475,1456704155642859,0.004513908410104703,0.01283465642290881,0.01367262574511178
476,1456704155657121,0.004953521995950201,0.016480135177677668,0.013583771801755002
477,1456704155679862,0.0060285251379717355,0.02068325132338032,0.013599119603390825
478,1456704155703130,0.007563659534614887,0.024545775977770825,0.013901585662919463
479,1456704155717130,0.009266426330747366,0.027136405691901812,0.014429793408997344
480,1456704155739452,0.010785010450215078,0.027765872802003294,0.014843793400217102
481,1456704155763469,0.011779841144157496,0.02623894614992787,0.014684627764058902
482,1456704155776739,0.01199951767304399,0.02294119412367736,0.013631258883974462
483,1456704155799860,0.011345649671220558,0.018682797805491296,0.011692866932947413
484,1456704155822763,0.009905988815366123,0.014368934526972655,0.009231192659492396
485,1456704155836971,0.007940964791674974,0.010680393230310148,0.006820128367714117
486,1456704155859489,0.0058220227422046585,0.007928591629680818,0.005025556653880984
487,1456704155882716,0.003934207066299326,0.006113085347172393,0.004200721811045452
488,1456704155896484,0.0025710023554986875,0.005077871577501328,0.0043691866754389415
489,1456704155919789,0.0018616358651492443,0.0046402909906777074,0.005233074630089279
490,1456704155942842,0.0017621904004982052,0.004640472413640225,0.006302092907300868
491,1456704155956804,0.002108284950547608,0.0049349351846103475,0.007090721572345567
492,1456704155979801,0.002693605373581054,0.0053773163757408786,0.007296107113959626
493,1456704156002020,0.0033318142000352,0.005812581969140374,0.00687756150388833
494,1456704156017024,0.003881410798087406,0.0060936945013404685,0.0060157477230525025
495,1456704156039518,0.004243559166298951,0.006116117701474893,0.004996220294484374
496,1456704156062148,0.004357320112440309,0.005851165810472181,0.004089075312470892
497,1456704156077146,0.004206441107007091,0.0053539714949570735,0.00347482946827032
498,1456704156100153,0.0038305091345706174,0.0047364902083425,0.0032255248711370874
499,1456704156122151,0.003322281319337514,0.004120699591249974,0.0033211005101510247
500,1456704156136968,0.0028012540426557123,0.00359879003119726,0.0036758815415461658
501,1456704156159793,0.002372509899110087,0.00321767070716037,0.0041611843997301735
502,1456704156181757,0.0020934028788520175,0.0029893199679708535,0.00462412321842877
503,1456704156196758,0.0019668963963381976,0.002918462821290571,0.0049113105086403
504,1456704156219991,0.001961774286306965,0.0030315693253176435,0.004904681777373592
505,1456704156242205,0.0020426947497747864,0.003386389638342326,0.004563282386787567
506,1456704156257206,0.002191036592727974,0.0040483398542020006,0.003949480674875755
507,1456704156279208,0.0024084107479953815,0.005039306358583523,0.0032192403130203457
508,1456704156301421,0.0027065109316732395,0.006284186723191906,0.0025764339976535725
509,1456704156317209,0.003092818964468968,0.007589494287563168,0.0022107518654345746
510,1456704156340115,0.0035619999848434036,0.00867890942142087,0.002241792354662985
511,1456704156361121,0.0040976689167382,0.009281995451065457,0.002683776180083095
512,1456704156376123,0.004679467409894879,0.009239579202885354,0.0034380888588925363
513,1456704156400149,0.005283980596680811,0.008575376225345079,0.004317566787427817
514,1456704156422143,0.005873309107831119,0.0074977520803498916,0.005101920949120054
515,1456704156437116,0.006378953431900218,0.006328491202181915,0.0056126544268338165
516,1456704156459305,0.006698551502597701,0.005388931179737902,0.005780484907607917
517,1456704156482145,0.006719993300531208,0.004891385748290485,0.005670607508718978
518,1456704156506148,0.006372436839522801,0.004877446909671454,0.005444449397444608
519,1456704156520144,0.005683202493501153,0.005219910507066264,0.0052712154799261736
520,1456704156542114,0.0048041503239305006,0.005678830310083657,0.0052385472068605205
521,1456704156566144,0.003977270815157313,0.0059887805173545324,0.005318762296279607
522,1456704156579114,0.003442778364784143,0.005951974057267396,0.005412330593144503
523,1456704156602139,0.0033326421221297055,0.005512603267232041,0.00543740637543268
524,1456704156626100,0.0036073685912961207,0.0047921869175842945,0.005404830914991551
525,1456704156639844,0.004073291131266894,0.004075679844032163,0.005431132564973655
526,1456704156661343,0.00447473334645433,0.0037491783980127336,0.0056832416069283785
527,1456704156686343,0.004615930518247948,0.004199337152917664,0.006289083116388529
528,1456704156699645,0.004455423232920088,0.005693383157890722,0.007264583171687686
529,1456704156721630,0.004133928563780312,0.008267005346537909,0.008494398745199689
530,1456704156745693,0.00392727691903073,0.011654228105076466,0.009773372707442562
531,1456704156759848,0.004142353257107165,0.01529472796627015,0.010884308823692698
532,1456704156781788,0.004992224047299754,0.018440055708021277,0.01166807927098062
533,1456704156805851,0.006494802434028108,0.02034482879187808,0.012049764676222955
534,1456704156819845,0.008433214607345035,0.020486016939352418,0.012022120476788242
535,1456704156841359,0.010396472760529527,0.0187322905038141,0.011621367749072282
536,1456704156865356,0.011893920171622585,0.01540480336187316,0.010920131851631152
537,1456704156879356,0.012514432218352304,0.011219853980563575,0.010024248838652184
538,1456704156901357,0.012083654977235294,0.007146689863975823,0.0090507344118946
539,1456704156926151,0.010759010164700062,0.004219769373408707,0.008094722152994546
540,1456704156939663,0.009005765450708546,0.003324912063196023,0.007216184307810973
541,1456704156962160,0.007438917646614876,0.004973469721943095,0.006462885495390625
542,1456704156984167,0.006584684840040949,0.009104667975552164,0.005912729469546541
543,1456704156999168,0.006666424745561687,0.014990894099786734,0.005695517031198514
544,1456704157021168,0.007518299305128488,0.021330294646364163,0.005958799958881619
545,1456704157044635,0.008674115721429412,0.02656681012316562,0.0067777876766844485
546,1456704157059423,0.00958888173016619,0.029371005007096617,0.008054740753112645
547,1456704157081582,0.00987531383745063,0.02909467005232181,0.00947688316205603
548,1456704157104390,0.009436673369745324,0.02597923064264839,0.010584217413893822
549,1456704157119637,0.008454348619868914,0.02101077226147052,0.010941318833717784
550,1456704157142102,0.00727273669092676,0.015505680316542819,0.010335704287664216
551,1456704157165120,0.006253103649439661,0.010641740723951099,0.008889729632652617
552,1456704157188120,0.005651933332604835,0.007140952714988899,0.007014676564575316
553,1456704157202105,0.005556021744527967,0.005193123322282663,0.005234106533161882
554,1456704157225097,0.005884746383103357,0.004573650755341982,0.003979836018536956
555,1456704157239831,0.006444266496238144,0.004837623035775427,0.003461054469525903
556,1456704157262339,0.007001647897740779,0.005492458616405669,0.003644662652174652
557,1456704157284641,0.007351194017128849,0.006116918812733563,0.004321150921493467
558,1456704157299639,0.007359714908327576,0.006435426636828312,0.005202162234560356
559,1456704157321627,0.006987320447516408,0.0063529031243446665,0.00600548878076909
560,1456704157344763,0.0062850680825627244,0.00594234511459648,0.006511081252329608
561,1456704157359436,0.005373911841534655,0.0053865579320524675,0.006592377718287927
562,1456704157381831,0.004411306995476226,0.004896293920545761,0.006230677121068399
563,1456704157404764,0.003553386676268401,0.004634055648918444,0.00551547929945549
564,1456704157419439,0.0029214613257402783,0.004664695298105179,0.004629146036645387
565,1456704157441469,0.002579703732583964,0.0049450496840878115,0.0038106620362363458
566,1456704157464470,0.002526717332594163,0.005355760169056745,0.0032957345413372726
567,1456704157479471,0.0027000667863868078,0.005761261231895648,0.003243746984968096
568,1456704157501756,0.002991916500442743,0.00606659086088306,0.003676912667527485
569,1456704157524814,0.0032747243511603453,0.006241202825779309,0.004459563425108617
570,1456704157539864,0.003434602544178628,0.0063034378381204076,0.005333389965435931
571,1456704157561334,0.003404566778430205,0.006284948987420806,0.006003162834281602
572,1456704157584637,0.003185108042631319,0.006202474177928572,0.0062436710277202654
573,1456704157600335,0.0028427529757898994,0.006053908402915767,0.005982952266440043
574,1456704157621629,0.002488120469658561,0.0058365847539362786,0.0053228487287134
575,1456704157644763,0.0022432412731729487,0.005568499290085698,0.004488131285867211
576,1456704157659760,0.002207295156195612,0.005290424542851106,0.0037321659512273594
577,1456704157681432,0.002426591540314412,0.0050435688722795195,0.0032459583600955378
578,1456704157704694,0.0028757784797805177,0.004838655932507644,0.003108485547793691
579,1456704157721666,0.003459673844787565,0.00463910584700374,0.0032875193224090773
580,1456704157741670,0.004040767123131082,0.00437229138768652,0.0036713229084570135
581,1456704157764664,0.0044852028654222085,0.003967527140749807,0.0041049556318541085
582,1456704157781666,0.004708217165222101,0.0034036749944465175,0.004424033456967761
583,1456704157801958,0.00469846241823554,0.0027403047873111783,0.004497018196584112
584,1456704157824969,0.004511500629509958,0.002112290533218664,0.004276510678112118
585,1456704157847983,0.00423881705379647,0.0016871495937590608,0.0038309178033250468
586,1456704157862136,0.00396998677564333,0.0016048432523931729,0.0033209953677909875
587,1456704157885166,0.0037656793670794706,0.0019276938661465701,0.0029204914681314237
588,1456704157907135,0.0036489560966917575,0.002620211177637196,0.0027268096021496064
589,1456704157923169,0.003610701430256394,0.0035632084325800412,0.0027218805891136948
590,1456704157944301,0.0036213099624886713,0.004593453932990558,0.002813342874346326
591,1456704157966304,0.0036442421086953177,0.005553007566666373,0.0029349415236896723
592,1456704157981300,0.0036504789342158457,0.006331450080954024,0.0031434168706900014
593,1456704158004520,0.0036341432731641313,0.0068882045700017595,0.0036397719094812915
594,1456704158027836,0.0036290799396656082,0.0072492486346977004,0.004678296133105597
595,1456704158041541,0.0037187613543385105,0.007483308058279933,0.006396262294494323
596,1456704158064547,0.004019635962016506,0.007675575762921225,0.008657795678068037
597,1456704158086764,0.0046229896958025355,0.007920326118685445,0.011013112311204724
598,1456704158102759,0.005516202708167458,0.008334761850626744,0.012824288837103482
599,1456704158124779,0.006542159036352477,0.009063148088968792,0.013526933755789412
600,1456704158147803,0.007448062084720513,0.010226837484377615,0.012914497063242231
601,1456704158165784,0.008013166161807743,0.01181385710173316,0.011292717137241514
602,1456704158185124,0.008176530632060409,0.013574684616887529,0.009404388717306396
603,1456704158207069,0.008075043479736357,0.01502730873763337,0.008154094675285262
604,1456704158221792,0.007966668424490439,0.015621852957708638,0.008270222341069302
605,1456704158245160,0.008100264031556483,0.015011502110389886,0.01004800056924885
606,1456704158267888,0.008625631805817248,0.013305434997685,0.013250367604337506
607,1456704158283083,0.009590573160058305,0.011171329183103025,0.017182172920397424
608,1456704158305082,0.010989013936353537,0.009696983119167776,0.020921319736686764
609,1456704158326834,0.012780727686921269,0.010013374800919874,0.023652637872398057
610,1456704158342140,0.014844116449662091,0.012806256836763372,0.024990662382304157
611,1456704158364157,0.016912431856881762,0.017926915378412584,0.025138803966088412
612,1456704158388157,0.018584990832959346,0.024294455027176323,0.024775057995207187
613,1456704158403159,0.019444918832125298,0.030173740673684904,0.024688161947921474
614,1456704158425160,0.019213813210514616,0.03376137982841638,0.02534132814034409
615,1456704158447183,0.017845032649765374,0.03386013464307557,0.02660477064755272
616,1456704158461183,0.015526628811956902,0.030341414358132066,0.02781582099870465
617,1456704158484397,0.012633316298909078,0.024173602135702726,0.028139545396366438
618,1456704158507452,0.009655321320612031,0.01701796778561668,0.02702920973667796
619,1456704158522519,0.0070928439293624565,0.0106101386647284,0.02453329295510629
620,1456704158552122,0.005319761035633603,0.006207950648938172,0.02128967654006676
621,1456704158576148,0.00446844409050433,0.004296665335572089,0.018222022844028643
622,1456704158583148,0.0043982484187571535,0.004599888338168315,0.016107316802078022
623,1456704158605144,0.004769832505129266,0.006329413198537017,0.015239864131327925
624,1456704158627923,0.005191524396145923,0.008543776846036346,0.01535136267083704
625,1456704158643216,0.00536551399775528,0.01047186824313396,0.015799623550092647
626,1456704158664219,0.00516443561274251,0.011692876154156862,0.01590069486509119
627,1456704158688219,0.004617145437482308,0.012140054436693002,0.01523007879908318
628,1456704158704220,0.003840892618625343,0.011979495857751342,0.013766032967189354
629,1456704158725221,0.002978517596864244,0.011457267012162363,0.011839493847544366
630,1456704158748367,0.002173925298596591,0.010790771778375091,0.009939788143461489
631,1456704158763369,0.0015770194840038457,0.010129421041360285,0.008478352084777811
632,1456704158784670,0.0013451256527392734,0.009562817490920972,0.007621537188420643
633,1456704158807742,0.0016141007516274493,0.009136420567484179,0.007262510896125778
634,1456704158823371,0.0024392078079344477,0.00885170640524505,0.007126608123791647
635,1456704158847166,0.0037350332743358314,0.008660165936535012,0.006935575221852203
636,1456704158867208,0.005257096422331415,0.008474354129122926,0.006536628856445482
637,1456704158883166,0.006653724476851751,0.008203588536050046,0.0059405178472227245
638,1456704158905167,0.007579640672535722,0.007797645253391039,0.005274900288512337
639,1456704158927745,0.007824731962823633,0.007273208673929031,0.004699827373643402
640,1456704158943258,0.0073975432734268536,0.00670920761245681,0.004333478435614279
641,1456704158964261,0.006521701415222699,0.006215900378338775,0.004215199986642221
642,1456704158987268,0.005543813899973424,0.005894676123906173,0.004311154520335376
643,1456704159003262,0.004793935344842366,0.0058054310675364415,0.004551966129649259
644,1456704159025263,0.0044634438705389076,0.005949091664127206,0.004880182091516249
645,1456704159047531,0.004554285815196723,0.006263854521510326,0.005280020122978645
646,1456704159069533,0.004912614610578172,0.006634416356619937,0.005768864749840072
647,1456704159084539,0.005317355271797636,0.006919872344879675,0.006353239349417325
648,1456704159107757,0.005577286490103241,0.007000800777079813,0.006981913520575596
649,1456704159129751,0.0055987197598995845,0.006826036394843068,0.007539311384818003
650,1456704159144705,0.0054030445126212944,0.006430193776188026,0.007894289783912791
651,1456704159167728,0.0050933975984770175,0.005912396866306482,0.007971211950733881
652,1456704159189773,0.004793284040302567,0.005392848483275916,0.00778748072022132
653,1456704159204802,0.004593449556254438,0.004968549244804879,0.007427737754703896
654,1456704159228075,0.004530763113124651,0.0046809557093241035,0.006977275345416417
655,1456704159249579,0.004595238860203048,0.0045067067271825955,0.006471013580680251
656,1456704159272589,0.00474720661180619,0.004380687442191535,0.005900320470422054
657,1456704159287589,0.004934107677864817,0.004243157217594089,0.005268725413216567
658,1456704159309870,0.005106203333313402,0.0040810841703223825,0.0046439224176702855
659,1456704159324875,0.0052291348822190945,0.003934588233876694,0.004156313979084874
660,1456704159347888,0.005287567243633171,0.0038649066019796506,0.003939753047705554
661,1456704159369889,0.005278347122755092,0.003906175841329235,0.004056606599216191
662,1456704159385123,0.005199784449290883,0.004030537220890797,0.004458784478367502
663,1456704159407892,0.0050470514034750774,0.004146575156197803,0.005007097652120194
664,1456704159429716,0.00481883371766901,0.0041348858345355765,0.005531462510983478
665,1456704159444189,0.004529833799275672,0.003907550850400852,0.005894039476756892
666,1456704159467233,0.004215834665357372,0.0034642348125420563,0.00602732541628542
667,1456704159489197,0.003922693953137596,0.0029136145046012043,0.005944630705412939
668,1456704159504192,0.003686403926766479,0.0024424861283713064,0.005733671321733539
669,1456704159527738,0.003521036764747585,0.0022427509073430505,0.005536557570305258
670,1456704159551248,0.0034228580686131533,0.002430345310679305,0.005511497713676824
671,1456704159564211,0.003383481695386182,0.0029938056376378848,0.005780223276422936
672,1456704159587457,0.0034000458624116386,0.003794598283006266,0.006380330703307697
673,1456704159609410,0.00347521111427727,0.0046173965358596485,0.007243954846395162
674,1456704159626249,0.0036050329977332664,0.005245782718840895,0.008209723947939087
675,1456704159647448,0.003758658714103805,0.005528050836362915,0.009056303223196702
676,1456704159677621,0.0038618646146928418,0.005407123734934976,0.009539052016624307
677,1456704159686587,0.0037997102656553323,0.004911260311075079,0.009423189524153431
678,1456704159707691,0.0034470321197232617,0.004120636771928614,0.00852539636639266
679,1456704159729632,0.0027220434827398914,0.0031304046866747863,0.0067758849685463545
680,1456704159746139,0.0016414756870486876,0.002026417661499453,0.004283919964766295
681,1456704159767383,0.0003428359999250611,0.0008788451864804854,0.0013578476621628668
